Program Time [s],data 0,data 1,data 2,,,,,,Program Time [s],data 0,data 1,data 2,,,,Program Time [s],data 0,data 1,data 2
700.863,65,159,250,,,,,,731.88,60,153,-3,,,x,740.007,62,164,142
700.873,65,140,1032,,,,,,731.891,60,162,-117,,,,740.017,62,176,-275
700.884,65,157,212,,,,,,731.9,60,152,-178,,,,740.027,62,164,148
700.893,65,140,1073,,,,,,731.911,60,161,81,,,,740.037,62,177,-312
700.903,65,160,13,,,,,,731.92,60,153,-220,,,,740.047,62,164,340
700.913,65,140,782,,,,,,731.93,60,162,-42,,,,740.057,62,182,907
700.923,65,157,-550,,,,,,731.941,60,154,99,,,,740.067,62,167,1835
700.933,65,141,407,,,,,,731.95,60,163,718,,,,740.077,62,179,808
700.943,65,158,-902,,,,,,731.96,60,156,2116,,,,740.087,62,166,34
700.953,65,141,-40,,,,,,731.97,60,165,1484,,,,740.096,62,183,-529
700.963,65,159,-934,,,,,,731.98,60,155,209,,,,740.107,62,171,-239
700.973,65,141,-31,,,,,,731.991,60,165,-305,,,,740.117,62,185,-285
700.983,65,157,-866,,,,,,732,60,157,-428,,,,740.127,62,172,-74
700.993,65,140,-37,,,,,,732.011,60,171,-239,,,,740.137,62,194,-142
701.004,65,159,-685,,,,,,732.02,60,162,-75,,,,740.146,62,176,80
701.013,65,142,154,,,,,,732.03,60,171,-207,,,,740.157,62,195,-164
701.023,65,160,-605,,,,,,732.04,60,166,-6,,,,740.167,62,181,136
701.034,65,139,102,,,,,,732.05,60,178,-215,,,,740.177,62,195,563
701.043,65,157,-647,,,,,,732.06,60,169,17,,,,740.187,62,169,-710
701.053,65,139,93,,,,,,732.07,60,178,-136,,,,740.197,62,186,762
701.064,65,158,-638,,,,,,732.08,60,169,29,,,,740.207,62,163,-517
701.073,65,141,126,,,,,,732.09,60,174,-187,,,,740.217,62,180,745
701.083,65,157,-619,,,,,,732.1,60,156,191,,,,740.227,62,160,-392
701.093,65,140,164,,,,,,732.111,60,165,301,,,,740.237,62,177,1058
701.104,65,157,-581,,,,,,732.12,60,156,166,,,,740.247,62,156,-388
701.113,65,143,228,,,,,,732.13,60,163,339,,,,740.258,62,179,1109
701.123,65,158,-490,,,,,,732.14,60,159,240,,,,740.267,62,161,-108
701.134,65,140,350,,,,,,732.15,60,164,139,,,,740.278,62,176,1560
701.143,65,155,-572,,,,,,732.16,60,156,562,,,,740.288,62,159,149
701.153,65,141,408,,,,,,732.171,60,160,782,,,,740.297,62,174,1722
701.164,65,157,-666,,,,,,732.181,60,155,397,,,,740.307,62,163,130
701.173,65,140,351,,,,,,732.192,60,162,955,,,,740.318,62,181,561
701.183,65,158,-693,,,,,,732.201,60,153,489,,,,740.328,62,162,496
701.193,65,142,387,,,,,,732.212,60,162,777,,,,740.337,62,178,-66
701.204,65,158,-562,,,,,,732.221,60,153,407,,,,740.348,62,163,111
701.213,65,139,364,,,,,,732.231,60,161,450,,,,740.357,62,177,-459
701.223,65,158,-617,,,,,,732.241,60,151,-403,,,,740.367,62,162,-128
701.233,65,142,263,,,,,,732.251,60,161,11,,,,740.377,62,180,-504
701.243,65,158,-507,,,,,,732.261,60,155,-426,,,,740.388,62,162,44
701.253,65,142,391,,,,,,732.271,60,162,36,,,,740.397,62,176,-581
701.264,65,159,-519,,,,,,732.281,60,156,-611,,,,740.408,62,164,-57
701.273,65,145,224,,,,,,732.291,60,161,-111,,,,740.417,62,176,-637
701.283,65,161,-452,,,,,,732.301,60,156,-508,,,,740.428,62,162,-332
701.293,65,144,367,,,,,,732.311,60,162,-410,,,,740.438,62,174,-388
701.303,65,159,-382,,,,,,732.321,60,152,-236,,,,740.448,62,162,112
701.313,65,143,370,,,,,,732.331,60,165,-459,,,,740.457,62,180,-387
701.323,65,157,-470,,,,,,732.341,60,152,-185,,,,740.468,62,157,-58
701.333,65,138,475,,,,,,732.351,60,161,-274,,,,740.477,62,180,-312
701.343,65,156,-645,,,,,,732.361,60,154,-176,,,,740.487,62,161,-101
701.353,65,139,450,,,,,,732.371,60,160,-230,,,,740.498,62,176,-352
701.364,65,159,-389,,,,,,732.381,60,153,-129,,,,740.508,62,157,169
701.373,65,137,416,,,,,,732.391,60,161,-225,,,,740.517,62,178,-359
701.384,65,155,-408,,,,,,732.401,60,154,-95,,,,740.528,62,157,-134
701.393,65,142,357,,,,,,732.411,60,162,-149,,,,740.538,62,181,-233
701.403,65,170,-300,,,,,,732.421,60,153,-90,,,,740.548,62,163,23
701.413,65,168,640,,,,,,732.432,60,165,-244,,,,740.558,62,176,-359
701.423,65,183,-421,,,,,,732.441,60,152,42,,,,740.567,62,159,-28
701.433,65,150,560,,,,,,732.451,60,161,-331,,,,740.578,62,177,-367
701.443,65,156,-567,,,,,,732.461,60,150,30,,,,740.587,62,157,154
701.453,65,135,309,,,,,,732.471,60,163,-127,,,,740.597,62,181,-609
701.463,65,159,-602,,,,,,732.481,60,152,-124,,,,740.608,62,160,260
701.473,65,139,287,,,,,,732.491,60,165,-12,,,,740.617,62,177,-357
701.483,65,158,-562,,,,,,732.501,60,152,-214,,,,740.628,62,161,148
701.494,65,142,444,,,,,,732.511,60,163,-220,,,,740.638,62,174,-584
701.503,65,160,-640,,,,,,732.522,60,155,-2,,,,740.648,62,160,256
701.513,65,138,417,,,,,,732.531,60,162,-269,,,,740.657,62,179,-563
701.523,65,159,-358,,,,,,732.541,60,154,139,,,,740.669,62,161,264
701.533,65,142,920,,,,,,732.555,60,162,-361,,,,740.677,62,176,-163
701.543,65,161,1196,,,,,,732.561,60,152,204,,,,740.688,62,158,-118
701.553,65,141,2210,,,,,,732.571,60,160,-255,,,,740.698,62,175,-465
701.563,65,162,51,,,,,,732.581,60,153,69,,,,740.707,62,161,199
701.573,65,145,290,,,,,,732.591,60,166,-167,,,,740.718,62,175,-554
701.583,65,165,-942,,,,,,732.601,60,155,41,,,,740.728,62,161,132
701.593,65,148,367,,,,,,732.611,60,167,-241,,,,740.738,62,180,-314
701.604,65,168,-676,,,,,,732.621,60,155,60,,,,740.748,62,162,138
701.613,65,153,288,,,,,,732.631,60,161,-238,,,,740.758,62,181,-296
701.623,65,173,-509,,,,,,732.641,60,154,104,,,,740.768,62,162,-437
701.634,65,157,427,,,,,,732.651,60,159,-259,,,,740.778,62,180,-341
701.643,65,179,-713,,,,,,732.661,60,153,84,,,,740.788,62,158,-165
701.653,65,158,361,,,,,,732.671,60,161,-251,,,,740.798,62,178,-252
701.663,65,176,-486,,,,,,732.682,60,154,153,,,,740.807,62,160,14
701.673,65,156,475,,,,,,732.692,60,162,-64,,,,740.818,62,175,-426
701.683,65,169,-550,,,,,,732.701,60,152,68,,,,740.828,62,158,28
701.693,65,144,722,,,,,,732.712,60,167,-123,,,,740.838,62,176,-266
701.704,65,163,-318,,,,,,732.721,60,161,314,,,,740.848,62,158,48
701.713,65,141,577,,,,,,732.731,60,195,275,,,,740.857,62,178,-276
701.723,65,158,-137,,,,,,732.742,60,179,327,,,,740.868,62,160,327
701.733,65,141,834,,,,,,732.751,60,165,-84,,,,740.878,62,190,-224
701.743,65,158,136,,,,,,732.762,60,153,109,,,,740.888,62,188,328
701.753,65,139,1179,,,,,,732.771,60,159,46,,,,740.898,62,202,-223
701.763,65,159,326,,,,,,732.782,60,156,-96,,,,740.907,62,168,83
701.773,65,139,1248,,,,,,732.792,60,162,-148,,,,740.918,62,177,314
701.783,65,159,335,,,,,,732.801,60,158,124,,,,740.927,62,154,-111
701.793,65,137,1312,,,,,,732.811,60,160,-194,,,,740.938,62,179,187
701.804,65,159,89,,,,,,732.821,60,156,109,,,,740.948,62,159,177
701.813,65,138,631,,,,,,732.831,60,165,-298,,,,740.957,62,175,-16
701.823,65,158,-79,,,,,,732.841,60,153,168,,,,740.968,62,162,18
701.833,65,139,244,,,,,,732.852,60,163,218,,,,740.978,62,179,89
701.843,65,159,-417,,,,,,732.862,60,159,1877,,,,740.987,62,159,47
701.853,65,140,-80,,,,,,732.871,60,162,1309,,,,740.998,62,176,193
701.863,65,157,-510,,,,,,732.882,60,155,509,,,,741.008,62,164,628
701.873,65,140,29,,,,,,732.892,60,164,-448,,,,741.017,62,182,1610
701.883,65,158,-557,,,,,,732.901,60,157,-285,,,,741.028,62,162,1928
701.893,50,140,-6,,,,,,732.911,60,169,-264,,,,741.038,62,185,873
701.903,50,158,-517,,,,,,732.921,60,161,-89,,,,741.047,62,159,-58
701.914,50,140,101,,,,,,732.931,60,171,-118,,,,741.058,50,183,-327
701.923,50,159,-568,,,,,,732.941,60,168,-67,,,,741.068,50,170,72
701.933,50,138,146,,,,,,732.952,60,176,-230,,,,741.077,50,185,-86
701.944,50,159,-567,,,,,,732.961,60,171,203,,,,741.088,50,170,-388
701.953,50,137,138,,,,,,732.971,60,178,-380,,,,741.097,50,190,-23
701.963,50,158,-499,,,,,,732.982,60,171,-39,,,,741.108,50,174,-271
701.973,50,139,236,,,,,,732.991,60,176,-23,,,,741.118,50,195,114
701.983,50,158,-284,,,,,,733.002,60,160,-305,,,,741.128,50,176,-388
701.993,50,139,-18,,,,,,733.012,60,168,-222,,,,741.137,50,194,70
702.003,50,157,-446,,,,,,733.021,60,159,327,,,,741.148,50,172,-207
702.014,50,136,-7,,,,,,733.031,60,165,-127,,,,741.158,50,186,224
702.023,50,159,-377,,,,,,733.042,60,157,392,,,,741.168,50,164,2
702.033,50,137,-63,,,,,,733.052,60,165,118,,,,741.178,50,178,94
702.043,50,157,-451,,,,,,733.061,60,153,573,,,,741.188,50,160,-29
702.053,50,139,-33,,,,,,733.071,60,161,463,,,,741.197,50,180,546
702.063,50,157,-338,,,,,,733.081,60,158,914,,,,741.208,50,162,228
702.073,50,138,52,,,,,,733.092,60,161,629,,,,741.217,50,175,455
702.083,50,156,-336,,,,,,733.101,60,153,903,,,,741.228,50,160,343
702.093,50,141,61,,,,,,733.111,60,163,573,,,,741.238,50,176,731
702.103,50,156,-368,,,,,,733.121,60,154,693,,,,741.248,50,160,733
702.113,50,138,1,,,,,,733.131,60,162,-147,,,,741.257,50,175,749
702.123,50,158,-349,,,,,,733.141,60,155,111,,,,741.268,50,160,725
702.133,50,139,164,,,,,,733.151,60,166,-241,,,,741.277,50,178,680
702.143,50,155,-478,,,,,,733.162,60,155,4,,,,741.288,50,158,170
702.154,50,138,-438,,,,,,733.171,60,165,-370,,,,741.297,50,179,31
702.164,50,156,45,,,,,,733.181,60,153,-203,,,,741.307,50,160,-191
702.174,50,141,-369,,,,,,733.191,60,163,-542,,,,741.317,50,178,-250
702.184,50,162,352,,,,,,733.201,60,156,-281,,,,741.328,50,157,-475
702.194,50,141,-314,,,,,,733.211,60,163,-242,,,,741.337,50,178,-123
702.204,50,158,313,,,,,,733.221,60,154,-193,,,,741.348,50,158,-388
702.214,50,139,-397,,,,,,733.232,60,164,-526,,,,741.357,50,178,-327
702.224,50,158,295,,,,,,733.242,60,154,-47,,,,741.368,50,159,-374
702.234,50,139,-344,,,,,,733.251,60,162,-457,,,,741.378,50,178,-252
702.244,50,157,259,,,,,,733.261,60,152,48,,,,741.388,50,160,-471
702.254,50,138,-405,,,,,,733.271,60,162,-141,,,,741.398,50,176,-210
702.264,50,157,373,,,,,,733.281,60,155,-172,,,,741.408,50,161,-278
702.275,50,139,-333,,,,,,733.291,60,162,0,,,,741.417,50,177,-172
702.284,50,154,143,,,,,,733.301,60,153,154,,,,741.427,50,158,-212
702.295,50,137,586,,,,,,733.311,60,162,-158,,,,741.438,50,177,-24
702.304,50,159,-343,,,,,,733.321,60,154,65,,,,741.448,50,159,-184
702.314,50,144,517,,,,,,733.331,60,161,-294,,,,741.457,50,172,-393
702.324,50,184,-177,,,,,,733.341,60,157,-216,,,,741.467,50,157,-221
702.334,50,168,591,,,,,,733.351,60,165,-41,,,,741.477,50,176,-69
702.345,50,167,-289,,,,,,733.361,60,152,19,,,,741.487,50,154,-232
702.354,50,138,448,,,,,,733.371,60,163,-128,,,,741.497,50,167,-32
702.364,50,152,-284,,,,,,733.382,60,150,48,,,,741.507,50,159,-6
702.375,50,137,246,,,,,,733.391,60,162,-284,,,,741.517,50,170,-29
702.384,50,158,-300,,,,,,733.401,60,155,-16,,,,741.528,50,157,-112
702.395,50,138,120,,,,,,733.412,60,164,-79,,,,741.538,50,169,-124
702.404,50,155,-314,,,,,,733.421,60,154,51,,,,741.547,50,159,-255
702.414,50,138,3,,,,,,733.432,60,162,-248,,,,741.557,50,170,-182
702.425,50,159,-428,,,,,,733.441,60,152,57,,,,741.568,50,158,-16
702.434,50,140,122,,,,,,733.452,60,162,-186,,,,741.577,50,170,-282
702.444,50,159,-72,,,,,,733.461,60,154,-62,,,,741.588,50,154,35
702.454,50,140,1117,,,,,,733.471,60,163,-50,,,,741.597,50,171,-336
702.464,50,161,1635,,,,,,733.482,60,153,-22,,,,741.607,50,159,230
702.474,50,143,1378,,,,,,733.492,60,168,-172,,,,741.617,50,169,-210
702.484,50,162,-378,,,,,,733.501,60,156,-36,,,,741.628,50,161,-289
702.495,50,145,-174,,,,,,733.512,60,166,-200,,,,741.638,50,166,-88
702.504,50,163,-619,,,,,,733.522,60,158,-11,,,,741.647,50,160,-113
702.514,50,146,118,,,,,,733.531,60,165,-154,,,,741.657,50,172,-202
702.524,50,168,-523,,,,,,733.542,60,154,-67,,,,741.667,50,155,-149
702.534,50,154,129,,,,,,733.552,60,164,-90,,,,741.677,50,171,34
702.544,50,173,-466,,,,,,733.562,60,156,-45,,,,741.687,50,159,-43
702.554,50,157,160,,,,,,733.572,60,158,-105,,,,741.698,50,169,-217
702.564,50,175,-320,,,,,,733.582,0,153,-55,,,,741.707,50,160,-42
702.574,50,156,129,,,,,,733.591,0,161,-177,,,,741.718,50,166,-422
702.584,50,172,-356,,,,,,733.602,0,153,-27,,,,741.728,50,160,10
702.594,50,148,246,,,,,,733.612,0,161,23,,,,741.738,50,166,-181
702.604,50,164,-69,,,,,,733.621,0,159,105,,,,741.747,50,159,-90
702.614,50,142,422,,,,,,733.632,0,183,8,,,,741.757,50,173,100
702.624,50,157,-65,,,,,,733.642,0,190,190,,,,741.767,50,162,-213
702.634,50,140,543,,,,,,733.651,0,182,62,,,,741.777,50,177,52
702.645,50,156,-72,,,,,,733.662,0,159,243,,,,741.788,50,159,127
702.654,50,140,694,,,,,,733.672,0,163,-152,,,,741.798,50,170,-150
702.664,50,159,307,,,,,,733.682,0,153,-181,,,,741.808,50,157,52
702.674,50,138,843,,,,,,733.692,0,162,108,,,,741.818,50,170,107
702.685,50,157,476,,,,,,733.701,0,153,-231,,,,741.827,50,160,-51
702.695,50,139,1139,,,,,,733.712,0,164,-105,,,,741.837,50,168,173
702.704,50,157,416,,,,,,733.722,0,155,154,,,,741.847,50,161,-218
702.714,50,136,950,,,,,,733.732,0,164,-205,,,,741.857,50,169,218
702.724,50,158,-15,,,,,,733.742,0,158,46,,,,741.867,50,156,-199
702.734,50,136,451,,,,,,733.751,0,167,97,,,,741.878,50,175,304
702.744,50,156,-396,,,,,,733.762,0,156,582,,,,741.887,50,164,200
702.754,50,138,107,,,,,,733.771,0,166,1812,,,,741.897,50,196,397
702.764,50,156,-709,,,,,,733.781,0,158,1719,,,,741.907,50,188,431
702.774,50,138,-59,,,,,,733.792,0,167,218,,,,741.917,50,192,-12
702.784,50,157,-724,,,,,,733.801,0,158,-193,,,,741.927,50,160,17
702.794,50,138,17,,,,,,733.812,0,174,-346,,,,741.938,50,171,65
702.804,50,157,-858,,,,,,733.821,0,159,-57,,,,741.947,50,156,8
702.814,50,138,-40,,,,,,733.831,0,173,-451,,,,741.957,50,172,-17
702.824,50,157,-627,,,,,,733.841,0,169,16,,,,741.968,50,157,-492
702.834,50,136,-113,,,,,,733.852,0,178,-199,,,,741.977,50,173,251
702.844,50,154,-660,,,,,,733.862,0,171,17,,,,741.987,50,158,-433
702.854,50,137,164,,,,,,733.872,0,184,-164,,,,741.997,60,173,-8
702.864,50,156,-577,,,,,,733.882,0,173,-53,,,,742.007,60,160,-178
702.874,50,138,162,,,,,,733.891,0,178,-53,,,,742.017,60,171,121
702.884,50,157,-693,,,,,,733.902,0,166,160,,,,742.027,60,162,740
702.895,50,138,141,,,,,,733.912,0,171,-159,,,,742.037,60,174,2290
702.904,50,155,-661,,,,,,733.922,0,161,227,,,,742.048,60,163,1084
702.914,50,136,156,,,,,,733.932,0,163,65,,,,742.057,60,177,37
702.924,50,157,-574,,,,,,733.941,0,158,472,,,,742.068,60,162,-622
702.935,50,135,367,,,,,,733.952,0,164,177,,,,742.077,60,179,-183
702.944,50,156,-637,,,,,,733.962,0,156,387,,,,742.087,60,169,-684
702.954,50,136,127,,,,,,733.972,0,161,499,,,,742.097,60,182,120
702.964,50,157,-627,,,,,,733.981,0,157,687,,,,742.107,60,170,-513
702.974,50,136,92,,,,,,733.992,0,163,738,,,,742.118,60,187,-18
702.984,50,156,-583,,,,,,734.001,0,155,1008,,,,742.128,60,173,-392
702.994,50,136,231,,,,,,734.012,0,162,687,,,,742.137,60,190,-7
703.004,50,156,-429,,,,,,734.022,0,154,650,,,,742.148,60,175,-302
703.014,50,139,310,,,,,,734.032,0,165,229,,,,742.157,60,187,252
703.024,50,158,-534,,,,,,734.042,0,155,265,,,,742.168,60,168,-348
703.034,50,138,223,,,,,,734.052,0,161,-116,,,,742.179,60,182,551
703.044,50,158,-527,,,,,,734.062,0,155,-206,,,,742.188,60,164,-226
703.054,50,138,338,,,,,,734.071,0,165,-216,,,,742.199,60,174,595
703.064,50,158,-601,,,,,,734.082,0,157,-165,,,,742.209,60,156,-259
703.074,50,140,295,,,,,,734.092,0,162,-387,,,,742.218,60,177,979
703.084,50,157,-513,,,,,,734.102,0,155,-330,,,,742.228,60,158,-65
703.094,50,137,356,,,,,,734.112,0,164,-332,,,,742.238,60,175,1287
703.104,50,155,-494,,,,,,734.122,0,152,-171,,,,742.248,60,158,46
703.115,50,137,301,,,,,,734.132,0,164,-492,,,,742.258,60,172,1514
703.124,50,155,-545,,,,,,734.141,0,155,-179,,,,742.268,60,156,229
703.134,50,137,340,,,,,,734.152,0,161,-473,,,,742.278,60,173,1350
703.144,50,155,-413,,,,,,734.161,0,153,3,,,,742.288,60,158,123
703.154,50,138,499,,,,,,734.173,0,163,94,,,,742.298,60,171,1144
703.164,50,156,-328,,,,,,734.183,0,153,-328,,,,742.308,60,157,-196
703.174,50,140,479,,,,,,734.194,0,164,-21,,,,742.318,60,174,-57
703.184,50,167,-194,,,,,,734.203,0,155,-515,,,,742.328,60,159,-120
703.194,50,169,483,,,,,,734.214,0,163,135,,,,742.338,60,173,-385
703.204,50,178,-217,,,,,,734.223,0,152,-407,,,,742.348,60,156,45
703.214,50,137,434,,,,,,734.233,0,162,26,,,,742.358,60,173,-266
703.224,50,153,-456,,,,,,734.243,0,153,-429,,,,742.368,60,158,-599
703.235,50,136,319,,,,,,734.253,0,163,88,,,,742.379,60,174,-355
703.244,50,156,-320,,,,,,734.263,0,156,-388,,,,742.388,60,159,-518
703.254,50,136,295,,,,,,734.273,0,163,20,,,,742.398,60,173,-205
703.264,50,155,-382,,,,,,734.283,0,154,-352,,,,742.409,60,158,-577
703.274,50,137,301,,,,,,734.293,0,162,52,,,,742.418,60,172,-121
703.284,50,157,-319,,,,,,734.303,0,155,-545,,,,742.428,60,157,-656
703.294,50,140,357,,,,,,734.313,0,162,-345,,,,742.438,60,175,-183
703.304,50,158,-412,,,,,,734.323,0,154,-141,,,,742.449,60,156,-425
703.314,50,140,1016,,,,,,734.333,0,163,-266,,,,742.458,60,171,-153
703.324,50,159,1371,,,,,,734.343,0,152,-53,,,,742.468,60,155,-443
703.334,50,140,1445,,,,,,734.355,0,164,-514,,,,742.479,60,175,-256
703.344,50,160,-134,,,,,,734.365,0,159,207,,,,742.488,60,157,-617
703.354,50,143,-330,,,,,,734.375,0,159,-448,,,,742.499,60,173,246
703.364,50,162,-674,,,,,,734.385,0,160,225,,,,742.508,60,155,-560
703.374,50,144,-211,,,,,,734.395,0,163,-258,,,,742.518,60,178,-213
703.384,50,166,-434,,,,,,734.405,0,158,210,,,,742.528,60,157,-400
703.394,50,151,-154,,,,,,734.415,0,168,-374,,,,742.538,60,174,-157
703.404,50,171,-430,,,,,,734.425,0,160,285,,,,742.549,60,159,-428
703.414,50,155,-83,,,,,,734.435,0,166,-296,,,,742.558,60,175,-4
703.424,50,174,-488,,,,,,734.445,0,159,100,,,,742.568,60,154,-499
703.434,50,156,64,,,,,,734.455,0,162,-379,,,,742.578,60,172,-45
703.444,50,172,-255,,,,,,734.465,0,158,354,,,,742.589,60,156,-410
703.454,50,150,134,,,,,,734.475,0,163,-455,,,,742.598,60,175,-171
703.464,50,164,-127,,,,,,734.485,0,157,166,,,,742.609,60,155,-306
703.474,50,143,79,,,,,,734.495,0,163,-259,,,,742.618,60,174,6
703.484,50,158,15,,,,,,734.505,0,157,155,,,,742.629,60,157,-244
703.495,50,138,276,,,,,,734.515,0,164,-297,,,,742.638,60,174,-167
703.504,50,159,-50,,,,,,734.525,0,156,306,,,,742.649,60,156,-130
703.514,50,135,408,,,,,,734.535,0,169,-270,,,,742.658,60,170,-255
703.524,50,158,435,,,,,,734.545,0,186,476,,,,742.668,60,161,-324
703.534,50,135,772,,,,,,734.555,0,199,-164,,,,742.678,60,170,214
703.545,50,156,717,,,,,,734.566,0,177,479,,,,742.688,60,154,-34
703.554,50,136,931,,,,,,734.575,0,169,-200,,,,742.699,60,173,117
703.564,50,157,509,,,,,,734.585,0,152,318,,,,742.709,60,154,-369
703.574,50,137,845,,,,,,734.595,0,162,-247,,,,742.718,60,177,234
703.584,50,155,344,,,,,,734.605,0,157,89,,,,742.728,60,154,-242
703.594,50,136,276,,,,,,734.615,0,162,-382,,,,742.738,60,175,58
703.604,50,156,-137,,,,,,734.626,0,156,167,,,,742.749,60,156,-299
703.614,50,137,-153,,,,,,734.635,0,165,-493,,,,742.758,60,171,51
703.624,50,157,-426,,,,,,734.645,0,155,269,,,,742.768,60,157,-187
703.635,50,136,-171,,,,,,734.655,0,166,-261,,,,742.779,60,172,232
703.645,50,155,-627,,,,,,734.665,0,157,244,,,,742.788,60,160,-500
703.654,43,138,-236,,,,,,734.675,0,168,519,,,,742.799,60,178,177
703.665,43,154,-586,,,,,,734.685,0,158,2689,,,,742.809,60,156,-155
703.674,43,138,-231,,,,,,734.695,0,167,1053,,,,742.818,60,173,86
703.684,43,156,-381,,,,,,734.705,0,157,338,,,,742.829,60,154,-232
703.694,43,137,-129,,,,,,734.715,0,172,-653,,,,742.838,60,173,37
703.704,43,154,-591,,,,,,734.725,0,160,-197,,,,742.849,66,153,-333
703.714,43,137,-112,,,,,,734.735,0,173,-364,,,,742.858,66,172,175
703.724,43,157,-627,,,,,,734.745,0,166,1,,,,742.868,66,150,-270
703.734,43,136,-116,,,,,,734.755,0,178,-422,,,,742.878,66,177,10
703.744,43,155,-348,,,,,,734.765,0,170,234,,,,742.888,66,149,-240
703.754,43,138,-105,,,,,,734.775,0,182,-415,,,,742.899,66,173,256
703.764,43,153,-375,,,,,,734.785,0,174,99,,,,742.908,66,163,-202
703.774,43,134,-99,,,,,,734.795,0,183,-297,,,,742.918,66,190,236
703.784,43,157,-326,,,,,,734.805,0,173,310,,,,742.928,66,188,137
703.794,43,136,79,,,,,,734.815,0,175,-220,,,,742.938,66,197,395
703.804,43,155,-312,,,,,,734.825,0,163,313,,,,742.948,66,155,-269
703.814,43,136,-2,,,,,,734.835,0,170,-310,,,,742.959,66,170,76
703.824,43,154,-396,,,,,,734.845,0,158,630,,,,742.968,66,157,-352
703.834,43,135,7,,,,,,734.855,0,166,-140,,,,742.978,66,171,37
703.845,43,153,-336,,,,,,734.865,0,156,578,,,,742.989,66,155,-270
703.854,43,140,109,,,,,,734.875,0,168,198,,,,742.999,66,173,23
703.864,43,154,-302,,,,,,734.885,0,157,874,,,,743.008,66,157,-183
703.874,43,140,44,,,,,,734.895,0,163,401,,,,743.018,66,176,122
703.884,43,156,-302,,,,,,734.905,0,160,924,,,,743.028,66,158,-272
703.895,43,139,-42,,,,,,734.915,0,164,590,,,,743.038,66,180,328
703.904,43,154,-423,,,,,,734.925,0,157,1049,,,,743.048,66,163,738
703.915,43,140,165,,,,,,734.935,0,166,464,,,,743.058,66,179,2205
703.924,43,154,-322,,,,,,734.945,0,159,675,,,,743.068,66,168,1257
703.934,43,141,36,,,,,,734.955,0,166,-223,,,,743.079,66,178,240
703.945,43,158,-186,,,,,,734.965,0,158,203,,,,743.089,66,169,-547
703.954,43,144,24,,,,,,734.975,0,166,-521,,,,743.099,66,182,-101
703.965,43,158,-320,,,,,,734.985,0,156,50,,,,743.108,66,172,-395
703.974,43,141,98,,,,,,734.995,0,167,-652,,,,743.118,66,181,-46
703.984,43,155,-331,,,,,,735.005,0,156,-2,,,,743.128,66,182,-210
703.994,43,139,126,,,,,,735.015,0,166,-526,,,,743.138,66,189,105
704.004,43,155,-305,,,,,,735.025,0,156,-5,,,,743.148,66,182,-124
704.014,43,138,112,,,,,,735.035,0,169,-364,,,,743.158,66,193,42
704.024,43,156,-353,,,,,,735.045,0,155,23,,,,743.168,66,181,23
704.034,43,138,202,,,,,,735.055,0,167,-545,,,,743.178,66,193,-165
704.044,43,154,-299,,,,,,735.065,0,160,-27,,,,743.189,66,177,70
704.054,43,140,157,,,,,,735.075,0,165,-395,,,,743.199,66,183,121
704.064,43,153,-238,,,,,,735.085,0,157,-231,,,,743.208,66,171,37
704.074,43,146,370,,,,,,735.095,0,166,-176,,,,743.218,66,180,164
704.084,43,182,-38,,,,,,735.105,0,159,222,,,,743.228,66,164,363
704.094,43,173,267,,,,,,735.116,0,166,-409,,,,743.238,66,178,321
704.104,43,167,-225,,,,,,735.126,0,158,133,,,,743.248,66,165,325
704.114,43,141,105,,,,,,735.135,0,163,-356,,,,743.258,66,177,825
704.124,43,154,-366,,,,,,735.145,0,155,167,,,,743.268,66,161,563
704.134,43,138,104,,,,,,735.155,0,167,-351,,,,743.278,66,177,822
704.144,43,155,-407,,,,,,735.165,0,154,391,,,,743.288,66,164,866
704.155,43,135,-577,,,,,,735.175,0,168,-334,,,,743.299,66,178,728
704.165,43,156,354,,,,,,735.185,0,155,192,,,,743.309,66,165,784
704.175,43,136,-585,,,,,,735.195,0,165,-268,,,,743.318,66,172,444
704.185,43,157,417,,,,,,735.205,0,160,55,,,,743.329,66,167,26
704.195,43,139,-494,,,,,,735.215,0,164,-206,,,,743.338,66,175,-4
704.205,43,158,649,,,,,,735.225,0,156,159,,,,743.348,66,160,-227
704.215,43,140,110,,,,,,735.235,0,167,-258,,,,743.358,66,177,-430
704.225,43,159,2492,,,,,,735.245,0,157,-64,,,,743.368,66,167,-199
704.235,43,145,916,,,,,,735.255,0,166,-111,,,,743.378,66,176,-355
704.245,43,161,646,,,,,,735.265,0,155,83,,,,743.388,66,163,-760
704.255,43,145,-718,,,,,,735.275,0,168,-564,,,,743.398,66,177,-533
704.265,43,163,167,,,,,,735.285,0,152,245,,,,743.408,66,166,-541
704.275,43,150,-748,,,,,,735.295,0,165,-370,,,,743.418,66,175,-337
704.285,43,166,50,,,,,,735.305,0,161,31,,,,743.429,66,162,-490
704.295,43,154,74,,,,,,735.315,0,165,-254,,,,743.438,66,176,-249
704.305,43,173,-279,,,,,,735.325,0,162,431,,,,743.449,66,166,-453
704.315,43,155,206,,,,,,735.335,0,172,-293,,,,743.459,66,174,-145
704.325,43,176,-233,,,,,,735.345,0,160,74,,,,743.468,66,163,-237
704.335,43,158,247,,,,,,735.355,0,165,-323,,,,743.478,66,176,-531
704.345,43,169,-309,,,,,,735.365,0,158,76,,,,743.488,66,165,-389
704.355,43,152,310,,,,,,735.375,0,166,-344,,,,743.499,66,175,-64
704.365,43,165,-96,,,,,,735.385,0,159,289,,,,743.508,66,165,-391
704.375,43,143,446,,,,,,735.395,0,164,-334,,,,743.518,66,180,-313
704.385,43,158,-84,,,,,,735.405,0,161,304,,,,743.528,66,162,-407
704.395,43,142,384,,,,,,735.415,0,165,-396,,,,743.538,66,176,-105
704.405,43,157,196,,,,,,735.425,0,156,297,,,,743.548,66,163,1
704.415,43,141,715,,,,,,735.435,0,167,-182,,,,743.559,66,176,137
704.425,43,157,416,,,,,,735.445,0,164,424,,,,743.568,66,167,-363
704.435,43,141,1053,,,,,,735.455,0,189,-174,,,,743.578,66,173,488
704.445,43,156,427,,,,,,735.465,0,188,578,,,,743.589,66,164,-467
704.455,43,139,1228,,,,,,735.475,0,184,-2,,,,743.598,66,172,183
704.465,43,158,531,,,,,,735.485,0,162,581,,,,743.608,66,165,-360
704.475,43,141,900,,,,,,735.495,0,164,-559,,,,743.618,66,176,492
704.485,43,155,89,,,,,,735.505,0,157,88,,,,743.628,66,164,-321
704.495,43,141,384,,,,,,735.515,0,169,-222,,,,743.638,66,175,288
704.505,43,158,-468,,,,,,735.525,0,162,197,,,,743.648,66,162,-495
704.515,43,140,13,,,,,,735.535,0,168,-246,,,,743.658,66,174,313
704.525,43,157,-565,,,,,,735.545,0,158,389,,,,743.668,66,167,-255
704.535,43,140,-23,,,,,,735.555,0,171,-389,,,,743.678,66,174,148
704.545,43,158,-613,,,,,,735.565,0,162,160,,,,743.688,66,164,-316
704.555,43,140,-309,,,,,,735.575,0,169,-257,,,,743.698,66,175,449
704.565,43,156,-566,,,,,,735.585,0,164,840,,,,743.708,66,162,-498
704.575,43,141,-345,,,,,,735.595,0,170,1619,,,,743.718,66,179,243
704.585,43,157,-644,,,,,,735.605,0,165,1805,,,,743.728,66,168,-294
704.595,43,141,-188,,,,,,735.615,0,169,-126,,,,743.738,66,180,294
704.605,43,156,-492,,,,,,735.625,0,168,-71,,,,743.748,66,168,-545
704.615,43,141,-121,,,,,,735.635,0,181,-604,,,,743.758,66,179,154
704.625,43,155,-507,,,,,,735.645,0,169,46,,,,743.768,66,165,-462
704.635,43,140,-132,,,,,,735.655,0,180,-190,,,,743.778,66,173,296
704.645,43,156,-502,,,,,,735.665,0,169,277,,,,743.788,66,164,-329
704.655,43,141,-186,,,,,,735.675,0,182,-475,,,,743.799,66,177,377
704.665,43,156,-478,,,,,,735.685,0,169,233,,,,743.808,0,166,-523
704.675,43,141,-3,,,,,,735.695,0,176,25,,,,743.818,0,177,220
704.685,43,157,-457,,,,,,735.705,0,164,244,,,,743.828,0,162,-384
704.695,43,140,-57,,,,,,735.715,0,170,-187,,,,743.838,0,173,305
704.705,43,156,-422,,,,,,735.725,0,150,267,,,,743.848,0,164,-249
704.715,43,139,-75,,,,,,735.735,0,156,112,,,,743.858,0,178,511
704.725,43,156,57,,,,,,735.745,0,146,147,,,,743.868,0,176,-303
704.735,43,140,70,,,,,,735.755,0,146,53,,,,743.878,0,211,661
704.745,43,157,33,,,,,,735.765,0,141,855,,,,743.888,0,185,-369
704.755,43,140,-225,,,,,,735.775,0,141,-194,,,,743.898,0,181,489
704.765,43,155,28,,,,,,735.785,0,132,776,,,,743.909,0,159,-253
704.775,43,141,88,,,,,,735.795,0,150,92,,,,743.918,0,173,289
704.785,43,156,-52,,,,,,735.805,0,140,829,,,,743.928,0,162,-367
704.795,43,139,-131,,,,,,735.815,0,147,125,,,,743.938,0,177,356
704.805,43,158,23,,,,,,735.825,0,144,457,,,,743.948,0,166,-567
704.815,43,140,-70,,,,,,735.835,0,148,62,,,,743.958,0,181,341
704.825,43,159,10,,,,,,735.845,0,143,65,,,,743.968,0,164,-521
704.835,43,142,-106,,,,,,735.855,0,147,-929,,,,743.978,0,177,331
704.845,43,161,12,,,,,,735.865,0,140,-800,,,,743.988,0,166,-353
704.855,43,144,-37,,,,,,735.875,0,154,-1355,,,,743.999,0,180,861
704.865,43,159,-85,,,,,,735.885,0,147,-1324,,,,744.008,0,165,1330
704.875,43,140,49,,,,,,735.895,0,150,-1483,,,,744.018,0,182,1874
704.885,43,158,-15,,,,,,735.905,0,144,-1483,,,,744.028,0,170,59
704.895,43,141,-100,,,,,,735.915,0,160,-1591,,,,744.038,0,183,69
704.905,43,154,156,,,,,,735.925,0,150,-891,,,,744.049,0,170,-807
704.915,43,140,-271,,,,,,735.935,0,157,-1421,,,,744.058,0,190,149
704.925,43,155,-73,,,,,,735.945,0,151,-896,,,,744.068,0,170,-331
704.936,43,139,-98,,,,,,735.955,0,156,-717,,,,744.078,0,191,223
704.945,43,158,-13,,,,,,735.965,0,150,-759,,,,744.088,0,180,-328
704.955,43,142,-34,,,,,,735.975,0,158,-980,,,,744.098,0,186,254
704.965,43,163,109,,,,,,735.985,0,147,-645,,,,744.108,0,183,-231
704.976,43,159,-36,,,,,,735.995,0,165,-760,,,,744.118,0,183,231
704.985,43,193,290,,,,,,736.005,0,150,-208,,,,744.128,0,180,-127
704.995,43,165,54,,,,,,736.015,0,155,-798,,,,744.138,0,182,171
705.005,43,160,123,,,,,,736.025,0,148,-356,,,,744.148,0,175,-367
705.015,43,134,-169,,,,,,736.035,0,162,-627,,,,744.158,0,172,681
705.025,43,157,45,,,,,,736.045,0,153,216,,,,744.168,0,171,-245
705.035,43,140,-56,,,,,,736.055,0,158,-448,,,,744.179,0,181,875
705.045,43,159,-30,,,,,,736.065,0,157,112,,,,744.19,0,161,-404
705.055,43,142,54,,,,,,736.075,0,158,102,,,,744.2,0,184,1276
705.065,43,159,-89,,,,,,736.085,0,154,32,,,,744.21,0,163,-192
705.075,43,143,-114,,,,,,736.095,0,162,-132,,,,744.219,0,178,1285
705.085,43,159,137,,,,,,736.105,0,156,181,,,,744.23,0,164,85
705.095,43,144,163,,,,,,736.115,0,165,-130,,,,744.239,0,177,1770
705.105,43,160,765,,,,,,736.125,0,153,275,,,,744.249,0,162,254
705.115,43,143,1996,,,,,,736.135,0,166,-530,,,,744.259,0,179,1459
705.125,43,162,1665,,,,,,736.146,0,162,-31,,,,744.269,0,166,29
705.135,43,145,109,,,,,,736.155,0,166,108,,,,744.279,0,181,935
705.145,43,165,-371,,,,,,736.165,0,168,111,,,,744.289,0,167,-582
705.155,43,146,-418,,,,,,736.176,0,163,230,,,,744.299,0,181,626
705.165,43,167,-79,,,,,,736.185,0,157,-28,,,,744.309,0,165,-680
705.175,43,151,-176,,,,,,736.195,0,172,85,,,,744.319,0,178,-120
705.185,43,172,-59,,,,,,736.206,0,158,90,,,,744.33,0,167,-618
705.195,43,156,-105,,,,,,736.215,0,163,387,,,,744.34,0,177,226
705.205,43,174,-106,,,,,,736.225,0,159,289,,,,744.349,0,166,-722
705.215,43,158,-84,,,,,,736.236,0,167,47,,,,744.36,0,180,-50
705.225,43,177,27,,,,,,736.245,0,159,430,,,,744.369,0,164,-163
705.235,43,156,30,,,,,,736.255,0,167,122,,,,744.38,0,182,-387
705.245,39,163,-123,,,,,,736.266,0,162,434,,,,744.389,0,164,-511
705.255,39,148,-115,,,,,,736.276,0,179,528,,,,744.399,0,177,51
705.265,39,157,204,,,,,,736.285,0,191,450,,,,744.409,0,168,-652
705.275,39,144,252,,,,,,736.295,0,191,350,,,,744.419,0,178,46
705.285,39,153,227,,,,,,736.305,0,163,502,,,,744.429,0,164,-621
705.295,39,141,290,,,,,,736.315,0,165,21,,,,744.439,0,180,360
705.305,39,152,353,,,,,,736.326,0,158,836,,,,744.449,0,164,-448
705.315,39,139,498,,,,,,736.335,0,169,-142,,,,744.459,0,179,155
705.325,39,151,678,,,,,,736.346,0,157,301,,,,744.469,0,167,-546
705.335,39,139,712,,,,,,736.356,0,169,82,,,,744.48,0,177,102
705.345,39,152,782,,,,,,736.366,0,162,483,,,,744.489,0,163,-493
705.355,39,140,794,,,,,,736.375,0,166,-177,,,,744.499,0,176,319
705.365,39,151,839,,,,,,736.386,0,164,470,,,,744.509,0,162,-384
705.375,39,141,366,,,,,,736.395,0,171,12,,,,744.519,0,182,141
705.385,39,150,-39,,,,,,736.406,0,162,1145,,,,744.529,0,164,-438
705.395,39,140,-44,,,,,,736.415,0,171,2193,,,,744.539,0,182,154
705.405,39,150,-283,,,,,,736.425,0,168,1867,,,,744.549,0,161,-496
705.415,39,139,-274,,,,,,736.435,0,176,-73,,,,744.559,0,180,193
705.425,39,151,-389,,,,,,736.445,0,164,119,,,,744.569,0,163,-398
705.436,39,142,-323,,,,,,736.456,0,177,-665,,,,744.579,0,177,190
705.445,39,150,-466,,,,,,736.466,60,170,405,,,,744.589,0,164,-443
705.455,39,140,-334,,,,,,736.475,60,180,-7,,,,744.599,0,179,242
705.465,39,152,-575,,,,,,736.485,60,176,325,,,,744.609,0,166,-203
705.475,39,139,-235,,,,,,736.496,60,189,-175,,,,744.619,0,168,123
705.485,39,150,-487,,,,,,736.505,60,172,219,,,,744.629,0,164,-478
705.495,39,139,-272,,,,,,736.515,60,189,353,,,,744.639,0,170,64
705.505,39,152,-187,,,,,,736.526,60,182,441,,,,744.649,0,164,-480
705.515,39,138,-322,,,,,,736.535,60,182,77,,,,744.66,0,170,431
705.525,39,152,-328,,,,,,736.545,60,172,243,,,,744.669,0,166,-149
705.535,39,138,-275,,,,,,736.555,60,179,133,,,,744.68,0,175,78
705.545,39,151,-297,,,,,,736.565,60,165,384,,,,744.689,0,164,-441
705.555,39,138,-158,,,,,,736.575,60,174,-40,,,,744.699,0,171,124
705.565,39,152,90,,,,,,736.585,60,161,444,,,,744.709,0,163,-359
705.575,39,139,-215,,,,,,736.596,60,171,208,,,,744.719,0,169,149
705.585,39,152,-32,,,,,,736.605,60,165,856,,,,744.729,0,163,-422
705.595,39,138,-93,,,,,,736.615,60,170,503,,,,744.739,0,168,364
705.606,39,150,-86,,,,,,736.625,60,164,1179,,,,744.75,0,161,-261
705.615,39,139,-180,,,,,,736.635,60,175,382,,,,744.76,0,169,75
705.625,39,150,11,,,,,,736.645,60,162,896,,,,744.769,0,164,-182
705.635,39,138,-52,,,,,,736.655,60,170,1027,,,,744.78,0,167,240
705.645,39,150,15,,,,,,736.666,60,164,760,,,,744.79,0,166,-184
705.655,39,139,-68,,,,,,736.675,60,172,299,,,,744.799,0,175,237
705.665,39,149,-102,,,,,,736.686,60,164,410,,,,744.81,0,189,129
705.675,39,140,-93,,,,,,736.695,60,176,-279,,,,744.819,0,203,252
705.685,39,149,-31,,,,,,736.706,60,169,255,,,,744.829,60,175,-135
705.695,39,138,-17,,,,,,736.715,60,178,-698,,,,744.839,60,171,153
705.705,39,151,-88,,,,,,736.725,60,157,-47,,,,744.85,60,161,-294
705.715,39,140,0,,,,,,736.735,60,177,-36,,,,744.86,60,170,229
705.725,39,153,26,,,,,,736.746,60,158,-200,,,,744.869,60,163,-329
705.735,39,142,-595,,,,,,736.755,60,165,-314,,,,744.88,60,170,93
705.745,39,153,-158,,,,,,736.765,60,151,184,,,,744.889,60,165,-291
705.755,39,138,-443,,,,,,736.775,60,164,-320,,,,744.899,60,172,125
705.765,39,152,106,,,,,,736.785,60,142,-148,,,,744.91,60,168,-347
705.775,39,138,-484,,,,,,736.795,60,154,-8,,,,744.919,60,172,154
705.785,39,150,30,,,,,,736.806,60,147,-33,,,,744.929,60,165,145
705.795,39,138,-484,,,,,,736.815,60,144,-121,,,,744.939,60,171,1440
705.805,39,150,-36,,,,,,736.825,60,142,259,,,,744.95,60,168,1902
705.815,39,137,-410,,,,,,736.835,60,155,-300,,,,744.96,60,174,1309
705.825,39,150,77,,,,,,736.845,60,135,285,,,,744.969,60,167,-251
705.835,39,138,-285,,,,,,736.855,60,148,-365,,,,744.98,60,173,246
705.845,39,154,65,,,,,,736.866,60,135,245,,,,744.989,60,174,-366
705.855,39,158,-242,,,,,,736.876,60,152,-253,,,x,744.999,60,180,202
705.865,39,183,409,,,,,,736.885,60,136,-289,,,,,,,
705.875,39,154,-251,,,,,,736.896,60,150,-694,,,,,,,
705.885,39,149,144,,,,,,736.906,60,130,-632,,,,,,,
705.895,39,136,-444,,,,,,736.916,60,147,-1102,,,,,,,
705.905,39,148,112,,,,,,736.926,60,125,-1152,,,,,,,
705.915,39,137,-470,,,,,,736.935,60,141,-1179,,,,,,,
705.925,39,150,184,,,,,,736.945,60,131,-1056,,,,,,,
705.935,39,141,-401,,,,,,736.956,60,148,-1154,,,,,,,
705.945,39,151,262,,,,,,736.965,60,139,-604,,,,,,,
705.955,39,138,-453,,,,,,736.976,60,156,-1734,,,,,,,
705.965,39,153,260,,,,,,736.986,60,141,-695,,,,,,,
705.975,39,140,-256,,,,,,736.996,60,158,-1320,,,,,,,
705.985,39,155,786,,,,,,737.006,60,146,-665,,,,,,,
705.995,39,143,1367,,,,,,737.016,60,155,-1273,,,,,,,
706.005,39,154,1667,,,,,,737.026,60,147,-761,,,,,,,
706.015,39,143,-331,,,,,,737.036,60,166,-1275,,,,,,,
706.025,39,157,-33,,,,,,737.046,60,143,-662,,,,,,,
706.035,39,145,-789,,,,,,737.056,60,168,-1617,,,,,,,
706.045,39,159,105,,,,,,737.066,60,137,-1149,,,,,,,
706.055,39,149,-550,,,,,,737.076,60,166,-1304,,,,,,,
706.065,39,165,213,,,,,,737.086,60,134,-356,,,,,,,
706.075,39,155,-465,,,,,,737.096,60,160,-904,,,,,,,
706.085,39,169,147,,,,,,737.106,60,144,99,,,,,,,
706.095,39,156,-292,,,,,,737.116,60,178,-655,,,,,,,
706.105,39,169,335,,,,,,737.126,60,166,380,,,,,,,
706.115,39,154,-349,,,,,,737.136,60,178,-388,,,,,,,
706.125,39,165,262,,,,,,737.146,60,141,314,,,,,,,
706.135,39,145,-247,,,,,,737.156,60,161,-537,,,,,,,
706.145,39,157,512,,,,,,737.166,60,140,721,,,,,,,
706.156,39,140,-418,,,,,,737.176,60,164,-573,,,,,,,
706.166,39,153,938,,,,,,737.186,60,141,901,,,,,,,
706.176,39,139,-322,,,,,,737.196,60,163,-339,,,,,,,
706.186,39,152,956,,,,,,737.206,60,146,340,,,,,,,
706.196,39,138,-96,,,,,,737.216,60,168,-962,,,,,,,
706.206,39,153,1218,,,,,,737.226,60,146,8,,,,,,,
706.216,39,138,202,,,,,,737.236,60,169,3,,,,,,,
706.226,39,152,1384,,,,,,737.246,60,149,999,,,,,,,
706.236,39,140,182,,,,,,737.256,60,173,1485,,,,,,,
706.246,39,149,1319,,,,,,737.266,85,150,1368,,,,,,,
706.256,39,140,-37,,,,,,737.276,85,176,-556,,,,,,,
706.266,39,151,823,,,,,,737.286,85,155,198,,,,,,,
706.276,60,139,-590,,,,,,737.296,85,177,-538,,,,,,,
706.286,60,152,546,,,,,,737.306,85,158,124,,,,,,,
706.297,60,138,-241,,,,,,737.316,85,181,-334,,,,,,,
706.306,60,153,-362,,,,,,737.326,85,163,332,,,,,,,
706.316,60,140,-237,,,,,,737.336,85,188,-303,,,,,,,
706.326,60,153,-380,,,,,,737.346,85,169,637,,,,,,,
706.336,60,140,-142,,,,,,737.356,85,188,-314,,,,,,,
706.346,60,153,-265,,,,,,737.366,85,175,672,,,,,,,
706.356,60,140,-176,,,,,,737.376,85,184,-143,,,,,,,
706.366,60,152,-322,,,,,,737.386,85,164,836,,,,,,,
706.376,60,141,-291,,,,,,737.396,85,182,-72,,,,,,,
706.386,60,152,-126,,,,,,737.406,85,157,894,,,,,,,
706.396,60,138,-155,,,,,,737.416,85,175,195,,,,,,,
706.406,60,153,-194,,,,,,737.426,85,154,900,,,,,,,
706.416,60,138,-86,,,,,,737.436,85,176,309,,,,,,,
706.426,60,153,-175,,,,,,737.446,85,153,1314,,,,,,,
706.436,60,138,-29,,,,,,737.456,85,176,535,,,,,,,
706.446,60,152,-183,,,,,,737.466,85,151,1704,,,,,,,
706.456,60,138,-18,,,,,,737.476,85,175,807,,,,,,,
706.466,60,151,-164,,,,,,737.486,85,154,1554,,,,,,,
706.476,60,138,2,,,,,,737.496,85,174,1039,,,,,,,
706.486,60,151,-143,,,,,,737.506,85,153,1206,,,,,,,
706.496,60,138,-32,,,,,,737.516,85,179,240,,,,,,,
706.506,60,153,-39,,,,,,737.526,85,154,792,,,,,,,
706.516,60,139,-452,,,,,,737.536,85,175,-205,,,,,,,
706.526,60,157,-198,,,,,,737.546,85,154,49,,,,,,,
706.536,60,141,-408,,,,,,737.556,85,174,-410,,,,,,,
706.546,60,156,-21,,,,,,737.566,85,158,154,,,,,,,
706.556,60,137,-394,,,,,,737.576,85,175,-470,,,,,,,
706.566,60,153,-58,,,,,,737.586,85,156,282,,,,,,,
706.576,60,137,-327,,,,,,737.596,85,180,-636,,,,,,,
706.586,60,152,-55,,,,,,737.606,85,153,339,,,,,,,
706.596,60,138,-379,,,,,,737.616,85,172,-461,,,,,,,
706.606,60,152,173,,,,,,737.627,85,154,313,,,,,,,
706.616,60,135,-386,,,,,,737.636,85,175,-495,,,,,,,
706.626,60,151,-96,,,,,,737.646,85,149,405,,,,,,,
706.636,60,137,-323,,,,,,737.656,85,173,-365,,,,,,,
706.647,60,153,-37,,,,,,737.666,85,156,255,,,,,,,
706.656,60,148,-29,,,,,,737.676,85,176,-398,,,,,,,
706.667,60,177,31,,,,,,737.686,85,152,381,,,,,,,
706.676,60,157,-125,,,,,,737.696,85,179,-212,,,,,,,
706.686,60,161,-81,,,,,,737.706,85,151,165,,,,,,,
706.696,60,134,-269,,,,,,737.716,85,173,80,,,,,,,
706.706,60,147,-67,,,,,,737.726,85,148,350,,,,,,,
706.717,60,137,-391,,,,,,737.736,85,173,217,,,,,,,
706.726,60,151,160,,,,,,737.746,85,155,359,,,,,,,
706.736,60,139,-301,,,,,,737.756,85,172,-192,,,,,,,
706.746,60,154,205,,,,,,737.766,85,150,400,,,,,,,
706.756,60,139,-360,,,,,,737.776,85,174,-187,,,,,,,
706.767,60,154,139,,,,,,737.786,85,152,216,,,,,,,
706.776,60,139,-267,,,,,,737.796,85,174,-64,,,,,,,
706.786,60,155,415,,,,,,737.806,85,154,269,,,,,,,
706.796,60,140,869,,,,,,737.816,85,173,53,,,,,,,
706.806,60,156,1816,,,,,,737.826,85,154,172,,,,,,,
706.817,60,143,419,,,,,,737.836,85,170,-33,,,,,,,
706.826,60,158,-165,,,,,,737.846,85,153,97,,,,,,,
706.836,60,144,-685,,,,,,737.856,85,175,-268,,,,,,,
706.847,60,160,-12,,,,,,737.866,85,150,141,,,,,,,
706.856,60,145,-465,,,,,,737.876,85,178,-67,,,,,,,
706.867,60,166,129,,,,,,737.886,85,153,27,,,,,,,
706.877,60,151,-280,,,,,,737.896,85,171,-244,,,,,,,
706.886,60,170,67,,,,,,737.906,85,154,168,,,,,,,
706.897,60,154,-235,,,,,,737.916,85,177,-148,,,,,,,
706.906,60,171,20,,,,,,737.926,85,153,148,,,,,,,
706.916,60,155,-200,,,,,,737.936,85,179,-180,,,,,,,
706.926,60,164,230,,,,,,737.946,85,157,-64,,,,,,,
706.937,60,146,-207,,,,,,737.956,85,173,-100,,,,,,,
706.946,60,159,203,,,,,,737.966,85,149,-55,,,,,,,
706.956,60,140,-13,,,,,,737.976,85,170,-160,,,,,,,
706.966,60,155,535,,,,,,737.986,85,148,185,,,,,,,
706.976,60,137,-101,,,,,,737.996,85,172,-138,,,,,,,
706.987,60,154,442,,,,,,738.006,85,142,213,,,,,,,
706.996,60,139,359,,,,,,738.016,85,170,-63,,,,,,,
707.007,60,152,850,,,,,,738.026,85,149,13,,,,,,,
707.017,60,138,538,,,,,,738.036,85,168,-128,,,,,,,
707.026,60,153,969,,,,,,738.046,85,147,-20,,,,,,,
707.037,60,137,629,,,,,,738.056,85,186,-7,,,,,,,
707.047,60,151,892,,,,,,738.066,85,181,266,,,,,,,
707.057,60,138,361,,,,,,738.076,85,197,34,,,,,,,
707.066,60,153,365,,,,,,738.086,85,159,185,,,,,,,
707.077,60,138,-252,,,,,,738.096,85,169,-245,,,,,,,
707.086,60,153,43,,,,,,738.106,85,144,20,,,,,,,
707.096,60,139,-545,,,,,,738.116,85,176,-533,,,,,,,
707.107,60,152,-201,,,,,,738.126,85,154,11,,,,,,,
707.117,60,138,-548,,,,,,738.136,85,176,-401,,,,,,,
707.127,60,156,-56,,,,,,738.146,64,153,9,,,,,,,
707.137,60,136,-683,,,,,,738.156,64,174,-475,,,,,,,
707.147,60,152,-287,,,,,,738.166,64,158,-33,,,,,,,
707.157,60,139,-380,,,,,,738.176,64,173,285,,,,,,,
707.167,60,155,-181,,,,,,738.186,64,153,-666,,,,,,,
707.177,60,143,-418,,,,,,738.196,64,178,1548,,,,,,,
707.187,60,154,-91,,,,,,738.206,64,156,1644,,,,,,,
707.197,60,146,-437,,,,,,738.217,64,180,1891,,,,,,,
707.207,60,151,-50,,,,,,738.226,64,158,-397,,,,,,,
707.217,129,145,-412,,,,,,738.236,64,182,141,,,,,,,
707.227,129,155,-34,,,,,,738.246,64,164,-1014,,,,,,,
707.237,129,149,-394,,,,,,738.257,64,187,658,,,,,,,
707.247,129,152,58,,,,,,738.267,64,165,-462,,,,,,,
707.257,129,146,-262,,,,,,738.276,64,193,627,,,,,,,
707.267,129,154,75,,,,,,738.286,64,168,-711,,,,,,,
707.277,129,146,-447,,,,,,738.297,64,194,542,,,,,,,
707.287,129,152,46,,,,,,738.307,64,173,-308,,,,,,,
707.297,129,144,-248,,,,,,738.316,64,195,-277,,,,,,,
707.307,129,152,-209,,,,,,738.327,64,173,220,,,,,,,
707.317,129,144,-244,,,,,,738.337,64,183,71,,,,,,,
707.327,129,153,-23,,,,,,738.347,64,163,111,,,,,,,
707.337,129,146,-314,,,,,,738.357,64,183,186,,,,,,,
707.347,129,151,-69,,,,,,738.367,64,155,460,,,,,,,
707.357,129,148,-148,,,,,,738.377,64,176,256,,,,,,,
707.367,129,154,158,,,,,,738.387,64,161,675,,,,,,,
707.377,129,147,-163,,,,,,738.397,64,176,380,,,,,,,
707.387,129,156,-6,,,,,,738.407,64,157,673,,,,,,,
707.397,129,149,-269,,,,,,738.417,64,176,798,,,,,,,
707.407,129,155,-7,,,,,,738.427,64,155,990,,,,,,,
707.417,129,145,-349,,,,,,738.437,64,180,861,,,,,,,
707.427,129,153,-121,,,,,,738.447,64,152,995,,,,,,,
707.437,129,147,-202,,,,,,738.457,64,179,670,,,,,,,
707.447,129,151,-75,,,,,,738.467,64,158,484,,,,,,,
707.457,129,144,-110,,,,,,738.477,64,176,32,,,,,,,
707.467,129,151,49,,,,,,738.487,64,156,23,,,,,,,
707.478,129,146,-226,,,,,,738.497,64,177,-320,,,,,,,
707.487,129,151,172,,,,,,738.507,64,157,77,,,,,,,
707.497,129,145,-276,,,,,,738.517,64,181,-331,,,,,,,
707.507,129,159,108,,,,,,738.527,64,150,42,,,,,,,
707.517,129,168,2,,,,,,738.537,64,180,-525,,,,,,,
707.527,129,180,188,,,,,,738.547,64,155,-212,,,,,,,
707.537,129,162,-135,,,,,,738.557,64,177,-403,,,,,,,
707.547,129,150,-20,,,,,,738.567,64,157,256,,,,,,,
707.557,129,142,-468,,,,,,738.577,64,175,-436,,,,,,,
707.567,129,153,104,,,,,,738.587,64,156,5,,,,,,,
707.577,129,144,-411,,,,,,738.597,64,175,-327,,,,,,,
707.587,129,154,-115,,,,,,738.607,64,156,23,,,,,,,
707.597,129,147,-443,,,,,,738.617,64,178,-483,,,,,,,
707.607,129,152,31,,,,,,738.627,64,155,59,,,,,,,
707.617,129,147,-510,,,,,,738.637,64,178,-348,,,,,,,
707.627,129,152,6,,,,,,738.647,64,152,242,,,,,,,
707.637,129,148,46,,,,,,738.657,64,176,-555,,,,,,,
707.647,129,156,1355,,,,,,738.667,64,153,114,,,,,,,
707.657,129,148,1739,,,,,,738.677,64,174,-361,,,,,,,
707.667,129,156,969,,,,,,738.687,64,158,269,,,,,,,
707.677,129,150,-503,,,,,,738.697,64,174,-387,,,,,,,
707.687,129,158,-366,,,,,,738.707,64,153,166,,,,,,,
707.697,129,153,-594,,,,,,738.717,64,180,-549,,,,,,,
707.707,129,162,-176,,,,,,738.727,64,153,191,,,,,,,
707.717,129,154,-419,,,,,,738.737,64,176,-422,,,,,,,
707.727,129,167,15,,,,,,738.747,64,152,170,,,,,,,
707.737,129,160,-352,,,,,,738.757,64,176,-427,,,,,,,
707.747,129,170,420,,,,,,738.767,64,155,323,,,,,,,
707.757,129,165,-307,,,,,,738.777,64,176,-651,,,,,,,
707.767,129,169,352,,,,,,738.787,64,154,-5,,,,,,,
707.777,129,158,-195,,,,,,738.797,64,175,-340,,,,,,,
707.787,129,163,362,,,,,,738.807,64,156,194,,,,,,,
707.797,129,152,-201,,,,,,738.817,64,172,-375,,,,,,,
707.807,129,158,524,,,,,,738.827,64,155,304,,,,,,,
707.817,129,146,-140,,,,,,738.837,64,172,-482,,,,,,,
707.827,129,154,708,,,,,,738.847,64,153,242,,,,,,,
707.837,129,147,-68,,,,,,738.857,64,180,-328,,,,,,,
707.847,129,154,848,,,,,,738.867,64,154,143,,,,,,,
707.857,129,145,224,,,,,,738.877,64,175,-489,,,,,,,
707.867,129,153,1222,,,,,,738.887,64,157,74,,,,,,,
707.877,129,145,574,,,,,,738.897,64,178,-200,,,,,,,
707.887,129,152,1204,,,,,,738.907,64,160,180,,,,,,,
707.897,129,145,317,,,,,,738.917,64,177,-324,,,,,,,
707.907,129,153,997,,,,,,738.927,64,155,311,,,,,,,
707.917,129,144,33,,,,,,738.937,64,176,-375,,,,,,,
707.927,129,154,425,,,,,,738.947,64,154,191,,,,,,,
707.937,129,145,-367,,,,,,738.957,64,176,-232,,,,,,,
707.947,129,153,61,,,,,,738.967,64,155,174,,,,,,,
707.957,129,145,-674,,,,,,738.977,68,174,-322,,,,,,,
707.967,129,151,87,,,,,,738.987,68,152,650,,,,,,,
707.977,129,146,-847,,,,,,738.997,68,176,-460,,,,,,,
707.987,129,153,67,,,,,,739.007,68,160,375,,,,,,,
707.997,129,145,-735,,,,,,739.017,68,189,-438,,,,,,,
708.007,129,154,43,,,,,,739.027,68,189,565,,,,,,,
708.017,129,144,-617,,,,,,739.037,68,198,-1,,,,,,,
708.027,129,154,176,,,,,,739.047,68,156,529,,,,,,,
708.037,129,145,-695,,,,,,739.057,68,172,-518,,,,,,,
708.047,129,154,126,,,,,,739.067,68,156,438,,,,,,,
708.057,125,143,-805,,,,,,739.077,68,172,-577,,,,,,,
708.067,125,155,234,,,,,,739.087,68,158,421,,,,,,,
708.077,125,144,-627,,,,,,739.097,68,177,-548,,,,,,,
708.087,125,152,204,,,,,,739.107,68,156,341,,,,,,,
708.097,125,145,-539,,,,,,739.117,68,180,-196,,,,,,,
708.107,125,154,165,,,,,,739.127,68,153,404,,,,,,,
708.117,125,145,-659,,,,,,739.137,68,176,112,,,,,,,
708.127,125,151,240,,,,,,739.147,68,161,1170,,,,,,,
708.137,125,144,-586,,,,,,739.157,68,179,1642,,,,,,,
708.147,125,154,147,,,,,,739.167,68,158,1796,,,,,,,
708.158,125,144,-841,,,,,,739.177,68,180,294,,,,,,,
708.168,125,154,474,,,,,,739.187,68,161,-30,,,,,,,
708.178,125,144,-688,,,,,,739.197,68,182,-496,,,,,,,
708.188,125,153,328,,,,,,739.207,68,163,11,,,,,,,
708.198,125,142,-725,,,,,,739.218,68,187,-62,,,,,,,
708.208,125,152,478,,,,,,739.227,68,167,282,,,,,,,
708.218,125,143,-840,,,,,,739.237,68,190,-499,,,,,,,
708.228,125,152,343,,,,,,739.247,68,171,490,,,,,,,
708.238,125,144,-758,,,,,,739.257,68,192,-191,,,,,,,
708.248,125,151,468,,,,,,739.268,68,173,217,,,,,,,
708.258,125,145,-835,,,,,,739.277,68,189,-332,,,,,,,
708.268,125,156,261,,,,,,739.287,68,169,536,,,,,,,
708.278,125,148,-778,,,,,,739.297,68,183,-237,,,,,,,
708.288,125,157,288,,,,,,739.307,68,163,-26,,,,,,,
708.298,125,144,-489,,,,,,739.317,68,177,-16,,,,,,,
708.308,125,152,443,,,,,,739.327,68,157,204,,,,,,,
708.318,125,142,-406,,,,,,739.337,68,178,-161,,,,,,,
708.328,125,153,367,,,,,,739.347,68,155,376,,,,,,,
708.338,125,143,-419,,,,,,739.357,68,175,419,,,,,,,
708.348,125,150,357,,,,,,739.367,68,156,555,,,,,,,
708.358,125,144,-399,,,,,,739.377,68,176,521,,,,,,,
708.368,125,154,426,,,,,,739.387,68,158,707,,,,,,,
708.378,125,142,-305,,,,,,739.397,68,176,782,,,,,,,
708.388,125,155,342,,,,,,739.407,68,151,395,,,,,,,
708.398,125,151,-221,,,,,,739.417,68,177,209,,,,,,,
708.408,125,185,628,,,,,,739.427,68,155,116,,,,,,,
708.418,125,171,-17,,,,,,739.437,68,174,-237,,,,,,,
708.428,125,162,375,,,,,,739.447,68,159,-206,,,,,,,
708.438,125,143,-348,,,,,,739.457,68,176,-388,,,,,,,
708.448,125,151,298,,,,,,739.467,68,158,-248,,,,,,,
708.458,125,143,-354,,,,,,739.477,68,173,-529,,,,,,,
708.468,125,156,268,,,,,,739.487,68,158,-488,,,,,,,
708.478,125,144,-470,,,,,,739.497,68,181,-199,,,,,,,
708.488,125,155,266,,,,,,739.507,68,153,-359,,,,,,,
708.498,125,145,-412,,,,,,739.517,68,176,-164,,,,,,,
708.508,125,157,317,,,,,,739.527,68,158,-165,,,,,,,
708.518,125,146,-243,,,,,,739.537,68,177,-278,,,,,,,
708.528,125,156,688,,,,,,739.547,68,154,-313,,,,,,,
708.538,125,147,748,,,,,,739.557,68,174,-294,,,,,,,
708.548,125,156,2268,,,,,,739.567,68,156,-313,,,,,,,
708.558,125,146,641,,,,,,739.577,68,175,-82,,,,,,,
708.568,125,159,213,,,,,,739.587,68,157,-273,,,,,,,
708.578,125,149,-824,,,,,,739.596,68,176,-42,,,,,,,
708.588,125,162,50,,,,,,739.607,68,156,-241,,,,,,,
708.598,125,154,-547,,,,,,739.617,68,175,-111,,,,,,,
708.608,125,168,290,,,,,,739.627,68,159,-136,,,,,,,
708.619,125,159,-607,,,,,,739.637,68,175,-251,,,,,,,
708.628,125,172,370,,,,,,739.646,68,154,-226,,,,,,,
708.638,125,162,-526,,,,,,739.657,68,174,-230,,,,,,,
708.648,125,173,394,,,,,,739.667,68,156,-32,,,,,,,
708.658,125,163,-494,,,,,,739.677,68,174,-148,,,,,,,
708.668,125,169,459,,,,,,739.687,68,155,-373,,,,,,,
708.678,125,155,-242,,,,,,739.697,68,180,165,,,,,,,
708.688,125,161,380,,,,,,739.707,68,151,-241,,,,,,,
708.698,125,147,-87,,,,,,739.717,68,173,-282,,,,,,,
708.708,125,157,498,,,,,,739.727,68,157,90,,,,,,,
708.718,125,147,-1,,,,,,739.737,68,174,-367,,,,,,,
708.728,125,154,750,,,,,,739.747,68,155,-54,,,,,,,
708.738,125,142,170,,,,,,739.757,68,177,-102,,,,,,,
708.748,125,155,961,,,,,,739.767,68,153,-130,,,,,,,
708.758,125,144,364,,,,,,739.776,68,177,-238,,,,,,,
708.768,125,155,1264,,,,,,739.786,68,160,-79,,,,,,,
708.778,125,146,627,,,,,,739.797,68,176,133,,,,,,,
708.788,125,155,1222,,,,,,739.807,68,158,-291,,,,,,,
708.798,125,144,239,,,,,,739.817,68,179,-226,,,,,,,
708.808,125,156,690,,,,,,739.827,68,159,293,,,,,,,
708.818,125,143,-347,,,,,,739.837,68,172,-146,,,,,,,
708.828,125,154,121,,,,,,739.846,68,156,-271,,,,,,,
708.838,125,146,-613,,,,,,739.857,68,173,-19,,,,,,,
708.848,125,155,55,,,,,,739.867,68,162,1,,,,,,,
708.858,125,143,-560,,,,,,739.877,68,177,-73,,,,,,,
708.868,122,156,-196,,,,,,739.887,62,160,-16,,,,,,,
708.878,122,145,-512,,,,,,739.897,62,176,-159,,,,,,,
708.888,122,145,-184,,,,,,739.906,62,159,68,,,,,,,
708.898,122,144,-769,,,,,,739.917,62,184,118,,,,,,,
708.908,122,145,167,,,,,,739.927,62,180,181,,,,,,,
708.918,122,145,-796,,,,,,739.937,62,204,54,,,,,,,
708.928,122,142,58,,,,,,739.947,62,179,275,,,,,,,
708.938,122,143,-781,,,,,,739.957,62,173,-134,,,,,,,
708.948,122,144,130,,,,,,739.966,62,159,-19,,,,,,,
708.958,122,143,-623,,,,,,739.977,62,175,-9,,,,,,,
708.968,122,145,116,,,,,,739.987,62,162,-132,,,,,,,
708.978,122,144,-603,,,,,,739.997,62,180,-182,,,,,,,
708.988,122,144,91,,,,,x,740.007,62,164,142,,,,,,,
708.998,122,145,-556,,,,,,740.017,62,176,-275,,,,,,,
709.008,122,145,247,,,,,,740.027,62,164,148,,,,,,,
709.018,122,142,-454,,,,,,740.037,62,177,-312,,,,,,,
709.028,122,144,104,,,,,,740.047,62,164,340,,,,,,,
709.038,122,144,-449,,,,,,740.057,62,182,907,,,,,,,
709.048,122,145,114,,,,,,740.067,62,167,1835,,,,,,,
709.058,122,144,-585,,,,,,740.077,62,179,808,,,,,,,
709.069,122,143,11,,,,,,740.087,62,166,34,,,,,,,
709.078,122,144,-453,,,,,,740.096,62,183,-529,,,,,,,
709.088,122,145,89,,,,,,740.107,62,171,-239,,,,,,,
709.098,122,144,-381,,,,,,740.117,62,185,-285,,,,,,,
709.108,122,143,63,,,,,,740.127,62,172,-74,,,,,,,
709.118,122,143,-424,,,,,,740.137,62,194,-142,,,,,,,
709.129,122,144,253,,,,,,740.146,62,176,80,,,,,,,
709.138,122,143,-352,,,,,,740.157,62,195,-164,,,,,,,
709.148,122,144,59,,,,,,740.167,62,181,136,,,,,,,
709.158,122,144,-412,,,,,,740.177,62,195,563,,,,,,,
709.168,122,145,224,,,,,,740.187,62,169,-710,,,,,,,
709.178,122,144,-308,,,,,,740.197,62,186,762,,,,,,,
709.188,122,145,352,,,,,,740.207,62,163,-517,,,,,,,
709.198,122,146,-427,,,,,,740.217,62,180,745,,,,,,,
709.208,122,148,511,,,,,,740.227,62,160,-392,,,,,,,
709.218,122,147,-311,,,,,,740.237,62,177,1058,,,,,,,
709.228,122,148,375,,,,,,740.247,62,156,-388,,,,,,,
709.238,122,143,-404,,,,,,740.258,62,179,1109,,,,,,,
709.248,122,144,474,,,,,,740.267,62,161,-108,,,,,,,
709.258,122,142,-348,,,,,,740.278,62,176,1560,,,,,,,
709.268,122,143,383,,,,,,740.288,62,159,149,,,,,,,
709.278,122,142,-365,,,,,,740.297,62,174,1722,,,,,,,
709.288,122,145,446,,,,,,740.307,62,163,130,,,,,,,
709.298,122,143,-312,,,,,,740.318,62,181,561,,,,,,,
709.308,122,143,375,,,,,,740.328,62,162,496,,,,,,,
709.318,122,144,-319,,,,,,740.337,62,178,-66,,,,,,,
709.328,122,151,631,,,,,,740.348,62,163,111,,,,,,,
709.338,122,170,-137,,,,,,740.357,62,177,-459,,,,,,,
709.348,122,175,551,,,,,,740.367,62,162,-128,,,,,,,
709.358,122,150,-119,,,,,,740.377,62,180,-504,,,,,,,
709.368,122,146,374,,,,,,740.388,62,162,44,,,,,,,
709.378,122,141,-696,,,,,,740.397,62,176,-581,,,,,,,
709.388,122,143,409,,,,,,740.408,62,164,-57,,,,,,,
709.398,122,143,-738,,,,,,740.417,62,176,-637,,,,,,,
709.408,122,146,441,,,,,,740.428,62,162,-332,,,,,,,
709.418,122,144,-697,,,,,,740.438,62,174,-388,,,,,,,
709.428,122,146,359,,,,,,740.448,62,162,112,,,,,,,
709.438,122,146,-653,,,,,,740.457,62,180,-387,,,,,,,
709.448,122,147,443,,,,,,740.468,62,157,-58,,,,,,,
709.458,122,146,-315,,,,,,740.477,62,180,-312,,,,,,,
709.468,122,147,1622,,,,,,740.487,62,161,-101,,,,,,,
709.478,122,147,1575,,,,,,740.498,62,176,-352,,,,,,,
709.488,122,150,1229,,,,,,740.508,62,157,169,,,,,,,
709.498,122,147,-571,,,,,,740.517,62,178,-359,,,,,,,
709.508,122,151,116,,,,,,740.528,62,157,-134,,,,,,,
709.518,122,150,-832,,,,,,740.538,62,181,-233,,,,,,,
709.528,122,154,219,,,,,,740.548,62,163,23,,,,,,,
709.538,122,158,-665,,,,,,740.558,62,176,-359,,,,,,,
709.548,122,159,446,,,,,,740.567,62,159,-28,,,,,,,
709.558,122,158,-662,,,,,,740.578,62,177,-367,,,,,,,
709.568,122,164,379,,,,,,740.587,62,157,154,,,,,,,
709.578,122,161,-627,,,,,,740.597,62,181,-609,,,,,,,
709.588,122,165,527,,,,,,740.608,62,160,260,,,,,,,
709.598,122,156,-528,,,,,,740.617,62,177,-357,,,,,,,
709.608,122,156,575,,,,,,740.628,62,161,148,,,,,,,
709.618,122,150,-395,,,,,,740.638,62,174,-584,,,,,,,
709.629,122,152,717,,,,,,740.648,62,160,256,,,,,,,
709.638,122,145,-398,,,,,,740.657,62,179,-563,,,,,,,
709.648,122,148,829,,,,,,740.669,62,161,264,,,,,,,
709.658,122,145,-237,,,,,,740.677,62,176,-163,,,,,,,
709.668,122,147,1062,,,,,,740.688,62,158,-118,,,,,,,
709.678,122,144,194,,,,,,740.698,62,175,-465,,,,,,,
709.688,122,146,1055,,,,,,740.707,62,161,199,,,,,,,
709.698,122,144,250,,,,,,740.718,62,175,-554,,,,,,,
709.708,122,147,1380,,,,,,740.728,62,161,132,,,,,,,
709.718,133,145,341,,,,,,740.738,62,180,-314,,,,,,,
709.728,133,146,1236,,,,,,740.748,62,162,138,,,,,,,
709.738,133,145,-365,,,,,,740.758,62,181,-296,,,,,,,
709.748,133,149,660,,,,,,740.768,62,162,-437,,,,,,,
709.758,133,144,-682,,,,,,740.778,62,180,-341,,,,,,,
709.768,133,147,285,,,,,,740.788,62,158,-165,,,,,,,
709.778,133,144,-838,,,,,,740.798,62,178,-252,,,,,,,
709.788,133,146,347,,,,,,740.807,62,160,14,,,,,,,
709.798,133,145,-953,,,,,,740.818,62,175,-426,,,,,,,
709.808,133,147,253,,,,,,740.828,62,158,28,,,,,,,
709.818,133,141,-933,,,,,,740.838,62,176,-266,,,,,,,
709.828,133,146,203,,,,,,740.848,62,158,48,,,,,,,
709.838,133,144,-893,,,,,,740.857,62,178,-276,,,,,,,
709.848,133,147,229,,,,,,740.868,62,160,327,,,,,,,
709.858,133,143,-879,,,,,,740.878,62,190,-224,,,,,,,
709.868,133,146,249,,,,,,740.888,62,188,328,,,,,,,
709.878,133,154,-759,,,,,,740.898,62,202,-223,,,,,,,
709.888,133,146,234,,,,,,740.907,62,168,83,,,,,,,
709.898,133,154,-738,,,,,,740.918,62,177,314,,,,,,,
709.908,133,148,329,,,,,,740.927,62,154,-111,,,,,,,
709.918,133,154,-653,,,,,,740.938,62,179,187,,,,,,,
709.928,133,146,359,,,,,,740.948,62,159,177,,,,,,,
709.938,133,155,-667,,,,,,740.957,62,175,-16,,,,,,,
709.948,133,147,432,,,,,,740.968,62,162,18,,,,,,,
709.958,133,154,-806,,,,,,740.978,62,179,89,,,,,,,
709.968,133,147,498,,,,,,740.987,62,159,47,,,,,,,
709.978,133,155,-613,,,,,,740.998,62,176,193,,,,,,,
709.988,133,146,521,,,,,,741.008,62,164,628,,,,,,,
709.998,133,155,-679,,,,,,741.017,62,182,1610,,,,,,,
710.008,133,148,315,,,,,,741.028,62,162,1928,,,,,,,
710.018,133,153,-433,,,,,,741.038,62,185,873,,,,,,,
710.028,133,147,360,,,,,,741.047,62,159,-58,,,,,,,
710.038,133,154,-580,,,,,,741.058,50,183,-327,,,,,,,
710.048,133,148,351,,,,,,741.068,50,170,72,,,,,,,
710.058,133,153,-586,,,,,,741.077,50,185,-86,,,,,,,
710.068,133,145,408,,,,,,741.088,50,170,-388,,,,,,,
710.078,133,155,-566,,,,,,741.097,50,190,-23,,,,,,,
710.088,133,149,353,,,,,,741.108,50,174,-271,,,,,,,
710.098,133,157,-496,,,,,,741.118,50,195,114,,,,,,,
710.108,133,150,420,,,,,,741.128,50,176,-388,,,,,,,
710.118,133,158,-570,,,,,,741.137,50,194,70,,,,,,,
710.128,133,148,439,,,,,,741.148,50,172,-207,,,,,,,
710.138,133,154,-534,,,,,,741.158,50,186,224,,,,,,,
710.149,133,145,343,,,,,,741.168,50,164,2,,,,,,,
710.159,133,142,-500,,,,,,741.178,50,178,94,,,,,,,
710.169,133,147,322,,,,,,741.188,50,160,-29,,,,,,,
710.179,133,142,-603,,,,,,741.197,50,180,546,,,,,,,
710.189,133,147,402,,,,,,741.208,50,162,228,,,,,,,
710.199,133,142,-520,,,,,,741.217,50,175,455,,,,,,,
710.209,133,149,207,,,,,,741.228,50,160,343,,,,,,,
710.219,133,149,-440,,,,,,741.238,50,176,731,,,,,,,
710.229,133,163,601,,,,,,741.248,50,160,733,,,,,,,
710.239,133,174,-331,,,,,,741.257,50,175,749,,,,,,,
710.249,133,166,595,,,,,,741.268,50,160,725,,,,,,,
710.259,133,142,-345,,,,,,741.277,50,178,680,,,,,,,
710.269,133,145,426,,,,,,741.288,50,158,170,,,,,,,
710.279,133,142,-505,,,,,,741.297,50,179,31,,,,,,,
710.289,133,148,405,,,,,,741.307,50,160,-191,,,,,,,
710.299,133,144,-609,,,,,,741.317,50,178,-250,,,,,,,
710.309,133,147,446,,,,,,741.328,50,157,-475,,,,,,,
710.319,133,146,-574,,,,,,741.337,50,178,-123,,,,,,,
710.329,133,151,363,,,,,,741.348,50,158,-388,,,,,,,
710.339,133,144,-512,,,,,,741.357,50,178,-327,,,,,,,
710.349,133,150,674,,,,,,741.368,50,159,-374,,,,,,,
710.359,133,145,204,,,,,,741.378,50,178,-252,,,,,,,
710.369,133,151,2329,,,,,,741.388,50,160,-471,,,,,,,
710.379,133,158,836,,,,,,741.398,50,176,-210,,,,,,,
710.389,133,151,687,,,,,,741.408,50,161,-278,,,,,,,
710.399,133,161,-879,,,,,,741.417,50,177,-172,,,,,,,
710.409,133,157,120,,,,,,741.427,50,158,-212,,,,,,,
710.419,133,162,-745,,,,,,741.438,50,177,-24,,,,,,,
710.429,133,160,302,,,,,,741.448,50,159,-184,,,,,,,
710.439,133,168,-556,,,,,,741.457,50,172,-393,,,,,,,
710.449,133,163,554,,,,,,741.467,50,157,-221,,,,,,,
710.459,133,171,-522,,,,,,741.477,50,176,-69,,,,,,,
710.469,133,168,532,,,,,,741.487,50,154,-232,,,,,,,
710.479,133,173,-451,,,,,,741.497,50,167,-32,,,,,,,
710.489,133,164,535,,,,,,741.507,50,159,-6,,,,,,,
710.499,133,167,-325,,,,,,741.517,50,170,-29,,,,,,,
710.509,133,157,579,,,,,,741.528,50,157,-112,,,,,,,
710.519,133,159,-365,,,,,,741.538,50,169,-124,,,,,,,
710.529,133,152,745,,,,,,741.547,50,159,-255,,,,,,,
710.539,133,155,-5,,,,,,741.557,50,170,-182,,,,,,,
710.549,133,151,814,,,,,,741.568,50,158,-16,,,,,,,
710.559,133,153,33,,,,,,741.577,50,170,-282,,,,,,,
710.569,133,147,1124,,,,,,741.588,50,154,35,,,,,,,
710.579,133,157,194,,,,,,741.597,50,171,-336,,,,,,,
710.589,133,149,1243,,,,,,741.607,50,159,230,,,,,,,
710.599,133,156,425,,,,,,741.617,50,169,-210,,,,,,,
710.609,133,148,1291,,,,,,741.628,50,161,-289,,,,,,,
710.619,133,154,191,,,,,,741.638,50,166,-88,,,,,,,
710.63,133,150,859,,,,,,741.647,50,160,-113,,,,,,,
710.639,133,154,-259,,,,,,741.657,50,172,-202,,,,,,,
710.65,133,150,324,,,,,,741.667,50,155,-149,,,,,,,
710.66,133,155,-515,,,,,,741.677,50,171,34,,,,,,,
710.67,133,148,65,,,,,,741.687,50,159,-43,,,,,,,
710.679,133,154,-824,,,,,,741.698,50,169,-217,,,,,,,
710.689,133,150,8,,,,,,741.707,50,160,-42,,,,,,,
710.699,133,154,-967,,,,,,741.718,50,166,-422,,,,,,,
710.71,133,149,233,,,,,,741.728,50,160,10,,,,,,,
710.72,133,154,-1031,,,,,,741.738,50,166,-181,,,,,,,
710.729,133,148,226,,,,,,741.747,50,159,-90,,,,,,,
710.739,133,153,-920,,,,,,741.757,50,173,100,,,,,,,
710.749,133,150,127,,,,,,741.767,50,162,-213,,,,,,,
710.759,133,152,-825,,,,,,741.777,50,177,52,,,,,,,
710.769,133,148,163,,,,,,741.788,50,159,127,,,,,,,
710.779,133,152,-790,,,,,,741.798,50,170,-150,,,,,,,
710.789,133,150,255,,,,,,741.808,50,157,52,,,,,,,
710.799,133,152,-785,,,,,,741.818,50,170,107,,,,,,,
710.809,133,149,193,,,,,,741.827,50,160,-51,,,,,,,
710.819,133,153,-857,,,,,,741.837,50,168,173,,,,,,,
710.829,133,149,226,,,,,,741.847,50,161,-218,,,,,,,
710.839,133,152,-740,,,,,,741.857,50,169,218,,,,,,,
710.849,133,148,232,,,,,,741.867,50,156,-199,,,,,,,
710.859,133,151,-962,,,,,,741.878,50,175,304,,,,,,,
710.869,133,150,361,,,,,,741.887,50,164,200,,,,,,,
710.879,133,152,-869,,,,,,741.897,50,196,397,,,,,,,
710.889,133,149,330,,,,,,741.907,50,188,431,,,,,,,
710.899,133,153,-770,,,,,,741.917,50,192,-12,,,,,,,
710.909,133,147,369,,,,,,741.927,50,160,17,,,,,,,
710.92,133,154,-744,,,,,,741.938,50,171,65,,,,,,,
710.929,133,147,458,,,,,,741.947,50,156,8,,,,,,,
710.939,133,152,-737,,,,,,741.957,50,172,-17,,,,,,,
710.949,133,150,422,,,,,,741.968,50,157,-492,,,,,,,
710.959,133,153,-506,,,,,,741.977,50,173,251,,,,,,,
710.969,133,149,361,,,,,,741.987,50,158,-433,,,,,,,
710.979,133,151,-704,,,,,,741.997,60,173,-8,,,,,,,
710.989,133,149,370,,,,,,742.007,60,160,-178,,,,,,,
710.999,133,151,-776,,,,,,742.017,60,171,121,,,,,,,
711.009,133,152,557,,,,,,742.027,60,162,740,,,,,,,
711.019,133,155,-583,,,,,,742.037,60,174,2290,,,,,,,
711.029,133,150,479,,,,,,742.048,60,163,1084,,,,,,,
711.039,133,155,-650,,,,,,742.057,60,177,37,,,,,,,
711.049,133,146,494,,,,,,742.068,60,162,-622,,,,,,,
711.059,133,150,-662,,,,,,742.077,60,179,-183,,,,,,,
711.069,133,150,377,,,,,,742.087,60,169,-684,,,,,,,
711.079,133,152,-620,,,,,,742.097,60,182,120,,,,,,,
711.089,0,144,451,,,,,,742.107,60,170,-513,,,,,,,
711.099,0,150,-607,,,,,,742.118,60,187,-18,,,,,,,
711.109,0,147,580,,,,,,742.128,60,173,-392,,,,,,,
711.119,0,145,-626,,,,,,742.137,60,190,-7,,,,,,,
711.129,0,148,338,,,,,,742.148,60,175,-302,,,,,,,
711.139,0,152,-478,,,,,,742.157,60,187,252,,,,,,,
711.15,0,170,693,,,,,,742.168,60,168,-348,,,,,,,
711.159,0,182,-514,,,,,,742.179,60,182,551,,,,,,,
711.169,0,167,685,,,,,,742.188,60,164,-226,,,,,,,
711.179,0,153,-622,,,,,,742.199,60,174,595,,,,,,,
711.189,0,144,319,,,,,,742.209,60,156,-259,,,,,,,
711.199,0,148,-619,,,,,,742.218,60,177,979,,,,,,,
711.209,0,146,497,,,,,,742.228,60,158,-65,,,,,,,
711.219,0,154,-769,,,,,,742.238,60,175,1287,,,,,,,
711.229,0,143,539,,,,,,742.248,60,158,46,,,,,,,
711.239,0,150,-513,,,,,,742.258,60,172,1514,,,,,,,
711.249,0,147,160,,,,,,742.268,60,156,229,,,,,,,
711.259,0,151,-812,,,,,,742.278,60,173,1350,,,,,,,
711.269,0,148,293,,,,,,742.288,60,158,123,,,,,,,
711.279,0,154,-314,,,,,,742.298,60,171,1144,,,,,,,
711.289,0,147,2621,,,,,,742.308,60,157,-196,,,,,,,
711.299,0,153,751,,,,,,742.318,60,174,-57,,,,,,,
711.309,0,146,922,,,,,,742.328,60,159,-120,,,,,,,
711.319,0,153,-1227,,,,,,742.338,60,173,-385,,,,,,,
711.329,0,149,136,,,,,,742.348,60,156,45,,,,,,,
711.339,0,150,-880,,,,,,742.358,60,173,-266,,,,,,,
711.349,0,146,497,,,,,,742.368,60,158,-599,,,,,,,
711.359,0,151,-883,,,,,,742.379,60,174,-355,,,,,,,
711.369,0,154,237,,,,,,742.388,60,159,-518,,,,,,,
711.379,0,163,-988,,,,,,742.398,60,173,-205,,,,,,,
711.389,0,150,655,,,,,,742.409,60,158,-577,,,,,,,
711.399,0,161,-880,,,,,,742.418,60,172,-121,,,,,,,
711.409,0,150,675,,,,,,742.428,60,157,-656,,,,,,,
711.419,0,162,-731,,,,,,742.438,60,175,-183,,,,,,,
711.429,0,141,657,,,,,,742.449,60,156,-425,,,,,,,
711.439,0,158,-777,,,,,,742.458,60,171,-153,,,,,,,
711.449,0,140,435,,,,,,742.468,60,155,-443,,,,,,,
711.459,0,151,-653,,,,,,742.479,60,175,-256,,,,,,,
711.469,0,134,384,,,,,,742.488,60,157,-617,,,,,,,
711.479,0,151,-782,,,,,,742.499,60,173,246,,,,,,,
711.489,0,135,431,,,,,,742.508,60,155,-560,,,,,,,
711.499,0,147,-427,,,,,,742.518,60,178,-213,,,,,,,
711.509,0,138,975,,,,,,742.528,60,157,-400,,,,,,,
711.519,0,146,77,,,,,,742.538,60,174,-157,,,,,,,
711.529,0,133,1260,,,,,,742.549,60,159,-428,,,,,,,
711.539,0,149,-26,,,,,,742.558,60,175,-4,,,,,,,
711.549,0,131,1019,,,,,,742.568,60,154,-499,,,,,,,
711.559,0,147,-588,,,,,,742.578,60,172,-45,,,,,,,
711.569,0,134,644,,,,,,742.589,60,156,-410,,,,,,,
711.579,0,147,-686,,,,,,742.598,60,175,-171,,,,,,,
711.589,0,134,323,,,,,,742.609,60,155,-306,,,,,,,
711.599,0,145,-1030,,,,,,742.618,60,174,6,,,,,,,
711.609,0,133,333,,,,,,742.629,60,157,-244,,,,,,,
711.619,0,149,-946,,,,,,742.638,60,174,-167,,,,,,,
711.629,0,135,200,,,,,,742.649,60,156,-130,,,,,,,
711.639,0,150,-732,,,,,,742.658,60,170,-255,,,,,,,
711.649,0,133,-60,,,,,,742.668,60,161,-324,,,,,,,
711.659,0,149,-989,,,,,,742.678,60,170,214,,,,,,,
711.669,0,138,278,,,,,,742.688,60,154,-34,,,,,,,
711.679,0,143,-1037,,,,,,742.699,60,173,117,,,,,,,
711.689,0,128,316,,,,,,742.709,60,154,-369,,,,,,,
711.699,0,145,-879,,,,,,742.718,60,177,234,,,,,,,
711.709,0,131,395,,,,,,742.728,60,154,-242,,,,,,,
711.719,0,143,-821,,,,,,742.738,60,175,58,,,,,,,
711.729,0,133,243,,,,,,742.749,60,156,-299,,,,,,,
711.739,0,143,-870,,,,,,742.758,60,171,51,,,,,,,
711.749,0,127,603,,,,,,742.768,60,157,-187,,,,,,,
711.759,0,137,-722,,,,,,742.779,60,172,232,,,,,,,
711.769,0,126,567,,,,,,742.788,60,160,-500,,,,,,,
711.779,0,142,-842,,,,,,742.799,60,178,177,,,,,,,
711.789,0,121,188,,,,,,742.809,60,156,-155,,,,,,,
711.799,0,141,-491,,,,,,742.818,60,173,86,,,,,,,
711.809,0,125,436,,,,,,742.829,60,154,-232,,,,,,,
711.819,0,132,-1113,,,,,,742.838,60,173,37,,,,,,,
711.829,0,120,512,,,,,,742.849,66,153,-333,,,,,,,
711.839,0,139,-908,,,,,,742.858,66,172,175,,,,,,,
711.849,0,120,373,,,,,,742.868,66,150,-270,,,,,,,
711.859,0,133,-773,,,,,,742.878,66,177,10,,,,,,,
711.869,0,120,376,,,,,,742.888,66,149,-240,,,,,,,
711.879,0,136,-1009,,,,,,742.899,66,173,256,,,,,,,
711.889,0,115,287,,,,,,742.908,66,163,-202,,,,,,,
711.899,0,130,-1092,,,,,,742.918,66,190,236,,,,,,,
711.909,0,119,329,,,,,,742.928,66,188,137,,,,,,,
711.919,0,129,-1125,,,,,,742.938,66,197,395,,,,,,,
711.929,0,125,382,,,,,,742.948,66,155,-269,,,,,,,
711.939,0,136,-1070,,,,,,742.959,66,170,76,,,,,,,
711.949,0,125,433,,,,,,742.968,66,157,-352,,,,,,,
711.959,0,133,-1457,,,,,,742.978,66,171,37,,,,,,,
711.969,0,123,-87,,,,,,742.989,66,155,-270,,,,,,,
711.979,0,134,-1038,,,,,,742.999,66,173,23,,,,,,,
711.989,0,124,-76,,,,,,743.008,66,157,-183,,,,,,,
711.999,0,136,-1358,,,,,,743.018,66,176,122,,,,,,,
712.009,0,121,204,,,,,,743.028,66,158,-272,,,,,,,
712.019,0,134,-1197,,,,,,743.038,66,180,328,,,,,,,
712.029,0,123,-47,,,,,,743.048,66,163,738,,,,,,,
712.039,0,140,-1194,,,,,,743.058,66,179,2205,,,,,,,
712.049,0,129,-268,,,,,,743.068,66,168,1257,,,,,,,
712.059,0,140,-826,,,,,,743.079,66,178,240,,,,,,,
712.069,0,133,59,,,,,,743.089,66,169,-547,,,,,,,
712.079,0,149,-776,,,,,,743.099,66,182,-101,,,,,,,
712.089,0,150,17,,,,,,743.108,66,172,-395,,,,,,,
712.099,0,169,-760,,,,,,743.118,66,181,-46,,,,,,,
712.109,0,146,269,,,,,,743.128,66,182,-210,,,,,,,
712.119,0,143,-689,,,,,,743.138,66,189,105,,,,,,,
712.129,0,125,435,,,,,,743.148,66,182,-124,,,,,,,
712.139,0,146,-852,,,,,,743.158,66,193,42,,,,,,,
712.149,0,131,564,,,,,,743.168,66,181,23,,,,,,,
712.159,0,152,-634,,,,,,743.178,66,193,-165,,,,,,,
712.17,0,125,319,,,,,,743.189,66,177,70,,,,,,,
712.18,0,143,-240,,,,,,743.199,66,183,121,,,,,,,
712.189,0,134,374,,,,,,743.208,66,171,37,,,,,,,
712.199,0,140,-240,,,,,,743.218,66,180,164,,,,,,,
712.209,0,132,696,,,,,,743.228,66,164,363,,,,,,,
712.219,0,148,631,,,,,,743.238,66,178,321,,,,,,,
712.229,0,132,2406,,,,,,743.248,66,165,325,,,,,,,
712.24,0,148,1859,,,,,,743.258,66,177,825,,,,,,,
712.25,0,132,735,,,,,,743.268,66,161,563,,,,,,,
712.26,0,149,59,,,,,,743.278,66,177,822,,,,,,,
712.269,0,141,-337,,,,,,743.288,66,164,866,,,,,,,
712.279,0,159,286,,,,,,743.299,66,178,728,,,,,,,
712.29,0,143,308,,,,,,743.309,66,165,784,,,,,,,
712.299,0,159,-430,,,,,,743.318,66,172,444,,,,,,,
712.309,0,148,370,,,,,,743.329,66,167,26,,,,,,,
712.32,0,160,-349,,,,,,743.338,66,175,-4,,,,,,,
712.329,0,152,945,,,,,,743.348,66,160,-227,,,,,,,
712.339,0,169,-471,,,,,,743.358,66,177,-430,,,,,,,
712.349,0,139,681,,,,,,743.368,66,167,-199,,,,,,,
712.359,0,157,-279,,,,,,743.378,66,176,-355,,,,,,,
712.369,0,137,820,,,,,,743.388,66,163,-760,,,,,,,
712.38,0,142,-342,,,,,,743.398,66,177,-533,,,,,,,
712.389,0,129,863,,,,,,743.408,66,166,-541,,,,,,,
712.4,0,139,19,,,,,,743.418,66,175,-337,,,,,,,
712.409,0,128,1451,,,,,,743.429,66,162,-490,,,,,,,
712.419,0,143,99,,,,,,743.438,66,176,-249,,,,,,,
712.43,0,133,1354,,,,,,743.449,66,166,-453,,,,,,,
712.44,0,149,393,,,,,,743.459,66,174,-145,,,,,,,
712.45,0,131,1478,,,,,,743.468,66,163,-237,,,,,,,
712.46,0,142,298,,,,,,743.478,66,176,-531,,,,,,,
712.469,0,135,1610,,,,,,743.488,66,165,-389,,,,,,,
712.479,0,150,41,,,,,,743.499,66,175,-64,,,,,,,
712.489,0,135,1075,,,,,,743.508,66,165,-391,,,,,,,
712.5,0,149,-320,,,,,,743.518,66,180,-313,,,,,,,
712.509,0,138,60,,,,,,743.528,66,162,-407,,,,,,,
712.519,77,152,-903,,,,,,743.538,66,176,-105,,,,,,,
712.529,77,137,-133,,,,,,743.548,66,163,1,,,,,,,
712.539,77,151,-957,,,,,,743.559,66,176,137,,,,,,,
712.549,77,141,213,,,,,,743.568,66,167,-363,,,,,,,
712.56,77,148,-764,,,,,,743.578,66,173,488,,,,,,,
712.569,77,142,595,,,,,,743.589,66,164,-467,,,,,,,
712.58,77,144,-663,,,,,,743.598,66,172,183,,,,,,,
712.589,77,135,404,,,,,,743.608,66,165,-360,,,,,,,
712.6,77,152,-717,,,,,,743.618,66,176,492,,,,,,,
712.609,77,140,405,,,,,,743.628,66,164,-321,,,,,,,
712.62,77,144,-529,,,,,,743.638,66,175,288,,,,,,,
712.63,77,145,281,,,,,,743.648,66,162,-495,,,,,,,
712.64,77,150,-164,,,,,,743.658,66,174,313,,,,,,,
712.649,77,141,564,,,,,,743.668,66,167,-255,,,,,,,
712.659,77,150,-486,,,,,,743.678,66,174,148,,,,,,,
712.67,77,143,842,,,,,,743.688,66,164,-316,,,,,,,
712.68,77,149,-615,,,,,,743.698,66,175,449,,,,,,,
712.69,77,144,627,,,,,,743.708,66,162,-498,,,,,,,
712.699,77,153,-126,,,,,,743.718,66,179,243,,,,,,,
712.71,77,147,390,,,,,,743.728,66,168,-294,,,,,,,
712.72,77,150,-741,,,,,,743.738,66,180,294,,,,,,,
712.729,77,140,849,,,,,,743.748,66,168,-545,,,,,,,
712.74,77,153,-428,,,,,,743.758,66,179,154,,,,,,,
712.75,77,135,444,,,,,,743.768,66,165,-462,,,,,,,
712.759,77,145,-251,,,,,,743.778,66,173,296,,,,,,,
712.769,77,140,909,,,,,,743.788,66,164,-329,,,,,,,
712.78,77,156,-476,,,,,,743.799,66,177,377,,,,,,,
712.79,77,138,850,,,,,,743.808,0,166,-523,,,,,,,
712.799,77,152,-307,,,,,,743.818,0,177,220,,,,,,,
712.81,77,140,524,,,,,,743.828,0,162,-384,,,,,,,
712.819,77,154,-202,,,,,,743.838,0,173,305,,,,,,,
712.829,77,139,697,,,,,,743.848,0,164,-249,,,,,,,
712.84,77,160,-125,,,,,,743.858,0,178,511,,,,,,,
712.85,77,144,1123,,,,,,743.868,0,176,-303,,,,,,,
712.859,77,154,-910,,,,,,743.878,0,211,661,,,,,,,
712.869,77,135,556,,,,,,743.888,0,185,-369,,,,,,,
712.88,77,151,-542,,,,,,743.898,0,181,489,,,,,,,
712.89,77,134,360,,,,,,743.909,0,159,-253,,,,,,,
712.9,77,150,-607,,,,,,743.918,0,173,289,,,,,,,
712.91,77,141,567,,,,,,743.928,0,162,-367,,,,,,,
712.919,77,150,-290,,,,,,743.938,0,177,356,,,,,,,
712.93,77,138,341,,,,,,743.948,0,166,-567,,,,,,,
712.94,77,147,-620,,,,,,743.958,0,181,341,,,,,,,
712.95,77,134,490,,,,,,743.968,0,164,-521,,,,,,,
712.96,77,159,-565,,,,,,743.978,0,177,331,,,,,,,
712.97,77,148,793,,,,,,743.988,0,166,-353,,,,,,,
712.98,77,182,-353,,,,,,743.999,0,180,861,,,,,,,
712.99,77,155,449,,,,,,744.008,0,165,1330,,,,,,,
713,77,149,-485,,,,,,744.018,0,182,1874,,,,,,,
713.01,77,133,219,,,,,,744.028,0,170,59,,,,,,,
713.02,77,152,-689,,,,,,744.038,0,183,69,,,,,,,
713.03,77,135,183,,,,,,744.049,0,170,-807,,,,,,,
713.04,77,152,-241,,,,,,744.058,0,190,149,,,,,,,
713.05,77,141,218,,,,,,744.068,0,170,-331,,,,,,,
713.06,77,158,-618,,,,,,744.078,0,191,223,,,,,,,
713.07,77,136,111,,,,,,744.088,0,180,-328,,,,,,,
713.08,77,158,-828,,,,,,744.098,0,186,254,,,,,,,
713.09,77,137,805,,,,,,744.108,0,183,-231,,,,,,,
713.1,77,150,-192,,,,,,744.118,0,183,231,,,,,,,
713.11,77,137,2138,,,,,,744.128,0,180,-127,,,,,,,
713.12,77,149,708,,,,,,744.138,0,182,171,,,,,,,
713.13,77,140,169,,,,,,744.148,0,175,-367,,,,,,,
713.14,77,156,-1028,,,,,,744.158,0,172,681,,,,,,,
713.15,77,145,257,,,,,,744.168,0,171,-245,,,,,,,
713.16,77,155,-698,,,,,,744.179,0,181,875,,,,,,,
713.17,77,140,310,,,,,,744.19,0,161,-404,,,,,,,
713.18,77,159,-673,,,,,,744.2,0,184,1276,,,,,,,
713.19,77,147,719,,,,,,744.21,0,163,-192,,,,,,,
713.2,77,167,-695,,,,,,744.219,0,178,1285,,,,,,,
713.21,77,149,666,,,,,,744.23,0,164,85,,,,,,,
713.22,77,166,-215,,,,,,744.239,0,177,1770,,,,,,,
713.23,77,152,188,,,,,,744.249,0,162,254,,,,,,,
713.24,77,162,-691,,,,,,744.259,0,179,1459,,,,,,,
713.25,77,141,183,,,,,,744.269,0,166,29,,,,,,,
713.26,77,155,-389,,,,,,744.279,0,181,935,,,,,,,
713.27,77,140,580,,,,,,744.289,0,167,-582,,,,,,,
713.28,77,149,-467,,,,,,744.299,0,181,626,,,,,,,
713.29,77,137,550,,,,,,744.309,0,165,-680,,,,,,,
713.3,77,148,-758,,,,,,744.319,0,178,-120,,,,,,,
713.31,77,141,755,,,,,,744.33,0,167,-618,,,,,,,
713.32,77,146,40,,,,,,744.34,0,177,226,,,,,,,
713.33,77,136,1196,,,,,,744.349,0,166,-722,,,,,,,
713.34,77,148,259,,,,,,744.36,0,180,-50,,,,,,,
713.35,77,144,1096,,,,,,744.369,0,164,-163,,,,,,,
713.36,77,141,249,,,,,,744.38,0,182,-387,,,,,,,
713.37,77,138,778,,,,,,744.389,0,164,-511,,,,,,,
713.38,77,143,-644,,,,,,744.399,0,177,51,,,,,,,
713.39,77,134,287,,,,,,744.409,0,168,-652,,,,,,,
713.4,77,152,-727,,,,,,744.419,0,178,46,,,,,,,
713.41,77,129,57,,,,,,744.429,0,164,-621,,,,,,,
713.42,77,144,-603,,,,,,744.439,0,180,360,,,,,,,
713.43,77,134,-261,,,,,,744.449,0,164,-448,,,,,,,
713.44,61,135,-894,,,,,,744.459,0,179,155,,,,,,,
713.45,61,128,119,,,,,,744.469,0,167,-546,,,,,,,
713.46,61,142,-790,,,,,,744.48,0,177,102,,,,,,,
713.47,61,129,-149,,,,,,744.489,0,163,-493,,,,,,,
713.48,61,142,-490,,,,,,744.499,0,176,319,,,,,,,
713.49,61,130,-83,,,,,,744.509,0,162,-384,,,,,,,
713.5,61,140,-867,,,,,,744.519,0,182,141,,,,,,,
713.51,61,134,-41,,,,,,744.529,0,164,-438,,,,,,,
713.52,61,147,-1015,,,,,,744.539,0,182,154,,,,,,,
713.53,61,131,388,,,,,,744.549,0,161,-496,,,,,,,
713.54,61,147,-1109,,,,,,744.559,0,180,193,,,,,,,
713.55,61,144,-245,,,,,,744.569,0,163,-398,,,,,,,
713.56,61,154,-998,,,,,,744.579,0,177,190,,,,,,,
713.57,61,138,-363,,,,,,744.589,0,164,-443,,,,,,,
713.58,61,150,-1107,,,,,,744.599,0,179,242,,,,,,,
713.59,61,134,-206,,,,,,744.609,0,166,-203,,,,,,,
713.6,61,142,-755,,,,,,744.619,0,168,123,,,,,,,
713.61,61,128,-160,,,,,,744.629,0,164,-478,,,,,,,
713.62,61,142,-645,,,,,,744.639,0,170,64,,,,,,,
713.63,61,138,-154,,,,,,744.649,0,164,-480,,,,,,,
713.64,61,153,-780,,,,,,744.66,0,170,431,,,,,,,
713.65,61,138,386,,,,,,744.669,0,166,-149,,,,,,,
713.66,61,148,-693,,,,,,744.68,0,175,78,,,,,,,
713.67,61,133,203,,,,,,744.689,0,164,-441,,,,,,,
713.68,61,140,-135,,,,,,744.699,0,171,124,,,,,,,
713.69,61,126,833,,,,,,744.709,0,163,-359,,,,,,,
713.7,61,132,-296,,,,,,744.719,0,169,149,,,,,,,
713.71,61,122,399,,,,,,744.729,0,163,-422,,,,,,,
713.72,61,129,-493,,,,,,744.739,0,168,364,,,,,,,
713.73,61,114,44,,,,,,744.75,0,161,-261,,,,,,,
713.74,61,126,-770,,,,,,744.76,0,169,75,,,,,,,
713.75,61,117,-62,,,,,,744.769,0,164,-182,,,,,,,
713.76,61,128,-365,,,,,,744.78,0,167,240,,,,,,,
713.77,61,118,596,,,,,,744.79,0,166,-184,,,,,,,
713.78,61,127,-102,,,,,,744.799,0,175,237,,,,,,,
713.79,61,128,519,,,,,,744.81,0,189,129,,,,,,,
713.8,61,154,-361,,,,,,744.819,0,203,252,,,,,,,
713.81,61,146,40,,,,,,744.829,60,175,-135,,,,,,,
713.82,61,144,-1057,,,,,,744.839,60,171,153,,,,,,,
713.83,61,123,-402,,,,,,744.85,60,161,-294,,,,,,,
713.84,61,132,-1200,,,,,,744.86,60,170,229,,,,,,,
713.85,61,125,-626,,,,,,744.869,60,163,-329,,,,,,,
713.86,61,137,-1397,,,,,,744.88,60,170,93,,,,,,,
713.87,61,132,-622,,,,,,744.889,60,165,-291,,,,,,,
713.88,61,144,-1381,,,,,,744.899,60,172,125,,,,,,,
713.89,61,129,-502,,,,,,744.91,60,168,-347,,,,,,,
713.9,61,140,-1067,,,,,,744.919,60,172,154,,,,,,,
713.91,61,134,-635,,,,,,744.929,60,165,145,,,,,,,
713.92,61,143,-739,,,,,,744.939,60,171,1440,,,,,,,
713.93,61,130,902,,,,,,744.95,60,168,1902,,,,,,,
713.94,61,142,1010,,,,,,744.96,60,174,1309,,,,,,,
713.95,61,130,940,,,,,,744.969,60,167,-251,,,,,,,
713.96,61,148,-532,,,,,,744.98,60,173,246,,,,,,,
713.97,61,134,-161,,,,,,744.989,60,174,-366,,,,,,,
713.98,61,151,-930,,,,,x,744.999,60,180,202,,,,,,,
713.99,61,137,125,,,,,,745.01,60,174,-298,,,,,,,
714,61,155,-283,,,,,,745.019,60,180,152,,,,,,,
714.01,61,144,610,,,,,,745.029,60,182,-156,,,,,,,
714.02,61,159,-435,,,,,,745.039,60,184,57,,,,,,,
714.03,61,149,223,,,,,,745.049,60,184,-117,,,,,,,
714.04,61,164,-379,,,,,,745.06,60,189,370,,,,,,,
714.05,61,152,693,,,,,,745.069,60,176,-236,,,,,,,
714.06,61,158,-223,,,,,,745.079,60,183,390,,,,,,,
714.07,61,145,588,,,,,,745.089,60,170,-28,,,,,,,
714.08,61,151,-248,,,,,,745.099,60,175,473,,,,,,,
714.09,61,138,774,,,,,,745.11,60,168,-111,,,,,,,
714.1,61,151,-40,,,,,,745.12,60,171,630,,,,,,,
714.11,61,136,961,,,,,,745.13,60,163,304,,,,,,,
714.12,61,146,154,,,,,,745.139,60,169,672,,,,,,,
714.13,61,131,1136,,,,,,745.15,60,160,-90,,,,,,,
714.14,61,144,523,,,,,,745.16,60,172,1243,,,,,,,
714.15,61,131,1220,,,,,,745.169,60,163,136,,,,,,,
714.161,61,146,1125,,,,,,745.18,60,171,1437,,,,,,,
714.17,61,136,842,,,,,,745.189,60,163,222,,,,,,,
714.18,61,147,1290,,,,,,745.199,60,172,813,,,,,,,
714.19,61,145,690,,,,,,745.21,60,163,-79,,,,,,,
714.201,61,140,765,,,,,,745.219,60,166,187,,,,,,,
714.21,61,138,308,,,,,,745.229,60,162,-534,,,,,,,
714.22,61,150,180,,,,,,745.239,60,172,237,,,,,,,
714.231,61,140,55,,,,,,745.249,60,162,-857,,,,,,,
714.241,61,146,327,,,,,,745.259,60,174,89,,,,,,,
714.25,61,141,-358,,,,,,745.269,60,160,-804,,,,,,,
714.26,61,158,44,,,,,,745.279,60,171,85,,,,,,,
714.271,61,137,-131,,,,,,745.289,60,161,-856,,,,,,,
714.28,61,151,-205,,,,,,745.299,60,173,106,,,,,,,
714.291,61,142,-122,,,,,,745.31,60,164,-959,,,,,,,
714.301,61,153,-456,,,,,,745.319,60,170,49,,,,,,,
714.31,61,138,242,,,,,,745.329,60,162,-683,,,,,,,
714.32,61,154,-69,,,,,,745.34,60,167,117,,,,,,,
714.33,61,141,510,,,,,,745.35,60,161,-689,,,,,,,
714.34,61,144,-241,,,,,,745.359,60,170,194,,,,,,,
714.35,61,141,399,,,,,,745.369,60,163,-700,,,,,,,
714.361,61,152,-411,,,,,,745.379,60,170,260,,,,,,,
714.37,61,140,239,,,,,,745.39,60,159,-604,,,,,,,
714.38,61,151,-144,,,,,,745.399,60,174,358,,,,,,,
714.391,61,140,719,,,,,,745.409,60,160,-694,,,,,,,
714.401,61,144,-702,,,,,,745.419,60,169,88,,,,,,,
714.41,61,136,585,,,,,,745.429,60,163,-589,,,,,,,
714.421,61,136,-266,,,,,,745.439,60,172,226,,,,,,,
714.431,61,125,644,,,,,,745.449,60,161,-688,,,,,,,
714.441,61,137,-241,,,,,,745.459,60,170,576,,,,,,,
714.451,61,118,696,,,,,,745.469,60,161,-947,,,,,,,
714.461,61,126,-95,,,,,,745.48,60,171,370,,,,,,,
714.471,61,111,499,,,,,,745.489,60,160,-840,,,,,,,
714.48,61,121,-182,,,,,,745.499,60,172,469,,,,,,,
714.491,61,111,647,,,,,,745.51,60,160,-564,,,,,,,
714.501,61,126,-195,,,,,,745.519,60,170,139,,,,,,,
714.511,61,118,714,,,,,,745.53,60,163,-582,,,,,,,
714.521,61,130,-183,,,,,,745.539,60,171,438,,,,,,,
714.531,61,128,21,,,,,,745.549,60,160,-763,,,,,,,
714.541,61,135,-435,,,,,,745.56,60,173,261,,,,,,,
714.551,61,123,-387,,,,,,745.569,60,160,-435,,,,,,,
714.561,61,137,-1076,,,,,,745.579,60,172,230,,,,,,,
714.571,61,126,-683,,,,,,745.589,60,161,-667,,,,,,,
714.581,61,138,-1392,,,,,,745.599,60,169,241,,,,,,,
714.591,61,131,-939,,,,,,745.609,60,165,-586,,,,,,,
714.601,61,148,-1747,,,,,,745.619,60,173,332,,,,,,,
714.611,61,131,-1107,,,,,,745.629,60,163,-504,,,,,,,
714.621,61,146,-1690,,,,,,745.639,60,175,288,,,,,,,
714.631,61,150,-542,,,,,,745.649,60,163,-630,,,,,,,
714.641,61,184,-1117,,,,,,745.66,60,172,386,,,,,,,
714.651,61,166,-297,,,,,,745.669,60,164,-521,,,,,,,
714.661,61,157,-455,,,,,,745.679,60,169,222,,,,,,,
714.671,61,135,-222,,,,,,745.689,60,161,-458,,,,,,,
714.681,61,145,-687,,,,,,745.699,60,172,265,,,,,,,
714.691,61,140,305,,,,,,745.709,60,168,-511,,,,,,,
714.701,61,149,-486,,,,,,745.719,60,169,206,,,,,,,
714.711,61,139,164,,,,,,745.729,60,175,-443,,,,,,,
714.721,61,153,-194,,,,,,745.739,60,172,692,,,,,,,
714.731,61,145,742,,,,,,745.749,60,174,-514,,,,,,,
714.741,61,153,-177,,,,,,745.759,60,179,524,,,,,,,
714.751,61,146,463,,,,,,745.77,60,200,-247,,,,,,,
714.761,61,149,868,,,,,,745.78,60,194,469,,,,,,,
714.771,61,148,2198,,,,,,745.789,60,189,-268,,,,,,,
714.781,62,155,1950,,,,,,745.799,60,170,525,,,,,,,
714.791,62,148,1302,,,,,,745.809,60,169,-497,,,,,,,
714.801,62,156,-202,,,,,,745.819,60,170,169,,,,,,,
714.811,62,149,567,,,,,,745.829,60,172,-367,,,,,,,
714.821,62,163,-14,,,,,,745.84,60,167,51,,,,,,,
714.831,62,152,902,,,,,,745.849,60,172,-481,,,,,,,
714.841,62,164,-114,,,,,,745.86,60,171,494,,,,,,,
714.851,62,155,496,,,,,,745.869,60,168,-424,,,,,,,
714.861,62,168,269,,,,,,745.88,60,173,452,,,,,,,
714.871,62,159,577,,,,,,745.889,60,177,123,,,,,,,
714.881,62,172,312,,,,,,745.899,60,170,1945,,,,,,,
714.891,62,158,869,,,,,,745.91,60,178,1430,,,,,,,
714.901,62,165,304,,,,,,745.919,60,175,1245,,,,,,,
714.911,62,155,405,,,,,,745.929,60,176,-621,,,,,,,
714.921,62,158,395,,,,,,745.939,60,176,-110,,,,,,,
714.931,62,150,1066,,,,,,745.949,49,178,-499,,,,,,,
714.941,62,156,306,,,,,,745.959,49,180,129,,,,,,,
714.951,62,143,796,,,,,,745.969,49,184,-777,,,,,,,
714.961,62,153,664,,,,,,745.979,49,185,117,,,,,,,
714.971,62,146,1289,,,,,,745.989,49,186,-274,,,,,,,
714.981,62,155,599,,,,,,745.999,49,188,-120,,,,,,,
714.991,62,146,1510,,,,,,746.009,49,192,-303,,,,,,,
715.001,62,155,699,,,,,,746.019,49,187,424,,,,,,,
715.011,62,145,1487,,,,,,746.029,49,187,-427,,,,,,,
715.021,62,153,792,,,,,,746.039,49,181,488,,,,,,,
715.031,62,145,1171,,,,,,746.049,49,177,-715,,,,,,,
715.041,62,154,361,,,,,,746.059,49,175,394,,,,,,,
715.051,62,146,726,,,,,,746.069,49,174,-553,,,,,,,
715.061,62,154,-161,,,,,,746.079,49,173,537,,,,,,,
715.071,62,143,143,,,,,,746.089,49,171,-297,,,,,,,
715.081,62,155,-274,,,,,,746.1,49,169,867,,,,,,,
715.091,62,145,189,,,,,,746.11,49,171,106,,,,,,,
715.101,62,154,-290,,,,,,746.119,49,170,957,,,,,,,
715.111,62,148,230,,,,,,746.129,49,170,214,,,,,,,
715.121,62,152,-303,,,,,,746.139,49,172,1271,,,,,,,
715.131,62,143,163,,,,,,746.149,49,171,176,,,,,,,
715.141,62,153,-311,,,,,,746.16,49,170,888,,,,,,,
715.151,62,147,98,,,,,,746.169,49,171,-332,,,,,,,
715.161,62,151,-344,,,,,,746.181,49,170,771,,,,,,,
715.171,62,144,321,,,,,,746.19,49,171,-589,,,,,,,
715.181,62,155,-288,,,,,,746.2,49,169,320,,,,,,,
715.191,62,142,308,,,,,,746.211,49,172,-970,,,,,,,
715.201,62,152,-375,,,,,,746.22,49,168,156,,,,,,,
715.211,62,143,140,,,,,,746.231,49,169,-902,,,,,,,
715.221,62,154,-329,,,,,,746.241,49,172,16,,,,,,,
715.231,62,145,139,,,,,,746.25,49,171,-798,,,,,,,
715.241,62,152,-190,,,,,,746.26,49,170,140,,,,,,,
715.251,62,147,-12,,,,,,746.27,49,173,-968,,,,,,,
715.262,62,152,-357,,,,,,746.281,49,168,470,,,,,,,
715.271,62,144,272,,,,,,746.29,49,168,-1140,,,,,,,
715.281,62,155,-270,,,,,,746.3,49,176,262,,,,,,,
715.291,62,147,207,,,,,,746.31,49,166,-566,,,,,,,
715.301,62,152,-405,,,,,,746.32,49,168,22,,,,,,,
715.311,62,144,300,,,,,,746.331,49,172,-580,,,,,,,
715.321,62,156,-389,,,,,,746.34,49,168,170,,,,,,,
715.331,62,146,201,,,,,,746.35,49,172,-672,,,,,,,
715.341,62,154,-353,,,,,,746.361,49,168,14,,,,,,,
715.351,62,149,242,,,,,,746.37,49,170,-383,,,,,,,
715.361,62,160,-162,,,,,,746.38,49,166,159,,,,,,,
715.371,62,144,-24,,,,,,746.39,49,170,-681,,,,,,,
715.381,62,155,-340,,,,,,746.4,49,171,243,,,,,,,
715.391,62,146,175,,,,,,746.41,49,163,-499,,,,,,,
715.401,62,152,-318,,,,,,746.42,49,171,-66,,,,,,,
715.411,62,145,192,,,,,,746.43,49,172,-506,,,,,,,
715.421,62,153,-128,,,,,,746.44,49,163,-74,,,,,,,
715.431,62,144,100,,,,,,746.45,49,170,-779,,,,,,,
715.441,62,155,-367,,,,,,746.46,49,168,272,,,,,,,
715.451,62,146,267,,,,,,746.47,49,162,-413,,,,,,,
715.461,62,156,-139,,,,,,746.48,49,170,206,,,,,,,
715.471,62,156,233,,,,,,746.49,49,170,-695,,,,,,,
715.481,62,180,38,,,,,,746.5,49,163,188,,,,,,,
715.491,62,169,656,,,,,,746.51,49,167,-888,,,,,,,
715.501,62,168,-146,,,,,,746.52,49,174,196,,,,,,,
715.511,62,148,359,,,,,,746.53,49,163,-1030,,,,,,,
715.521,62,152,-215,,,,,,746.54,49,163,-139,,,,,,,
715.531,62,143,291,,,,,,746.55,49,165,-548,,,,,,,
715.541,62,158,-322,,,,,,746.561,49,161,405,,,,,,,
715.551,62,148,277,,,,,,746.57,49,173,-916,,,,,,,
715.561,62,158,-217,,,,,,746.58,49,164,238,,,,,,,
715.571,62,147,80,,,,,,746.59,49,164,-893,,,,,,,
715.581,62,161,-304,,,,,,746.6,49,153,-138,,,,,,,
715.591,62,145,270,,,,,,746.611,49,163,-585,,,,,,,
715.601,62,159,208,,,,,,746.62,49,165,296,,,,,,,
715.611,62,153,1661,,,,,,746.631,49,156,-617,,,,,,,
715.621,62,160,1444,,,,,,746.64,49,159,61,,,,,,,
715.631,62,151,932,,,,,,746.65,49,154,-500,,,,,,,
715.641,62,162,-302,,,,,,746.661,49,150,11,,,,,,,
715.651,62,151,-113,,,,,,746.67,49,160,-787,,,,,,,
715.661,62,161,-757,,,,,,746.681,49,150,113,,,,,,,
715.671,62,156,246,,,,,,746.69,49,159,-1097,,,,,,,
715.681,62,169,-329,,,,,,746.7,49,183,612,,,,,,,
715.691,62,160,266,,,,,,746.71,49,189,-494,,,,,,,
715.701,62,171,-403,,,,,,746.72,49,168,48,,,,,,,
715.711,62,164,430,,,,,,746.73,49,158,-1271,,,,,,,
715.721,62,175,-296,,,,,,746.74,49,158,156,,,,,,,
715.731,62,164,300,,,,,,746.75,49,153,-875,,,,,,,
715.741,62,171,-86,,,,,,746.761,49,167,17,,,,,,,
715.751,62,157,418,,,,,,746.77,49,166,-858,,,,,,,
715.761,62,161,-102,,,,,,746.781,49,168,-167,,,,,,,
715.771,62,153,514,,,,,,746.79,49,163,-1186,,,,,,,
715.781,62,159,-145,,,,,,746.8,49,161,250,,,,,,,
715.791,62,148,423,,,,,,746.81,49,165,-848,,,,,,,
715.801,53,158,338,,,,,,746.82,49,166,-195,,,,,,,
715.811,53,146,866,,,,,,746.83,49,164,-412,,,,,,,
715.821,53,157,356,,,,,,746.84,49,175,2333,,,,,,,
715.831,53,147,925,,,,,,746.85,49,168,449,,,,,,,
715.841,53,157,493,,,,,,746.86,49,170,302,,,,,,,
715.851,53,145,1130,,,,,,746.87,49,168,-1162,,,,,,,
715.861,53,160,465,,,,,,746.88,49,182,-109,,,,,,,
715.871,53,146,807,,,,,,746.89,49,187,-935,,,,,,,
715.881,53,155,47,,,,,,746.901,49,211,903,,,,,,,
715.891,53,148,162,,,,,,746.911,49,193,-636,,,,,,,
715.901,53,156,-271,,,,,,746.92,49,203,605,,,,,,,
715.911,53,146,62,,,,,,746.93,49,191,-403,,,,,,,
715.921,53,157,-445,,,,,,746.94,49,195,498,,,,,,,
715.931,53,145,-14,,,,,,746.95,49,196,-769,,,,,,,
715.941,53,155,-597,,,,,,746.961,49,198,581,,,,,,,
715.951,53,149,-202,,,,,,746.97,49,197,-144,,,,,,,
715.961,53,157,-417,,,,,,746.981,49,183,996,,,,,,,
715.971,53,146,-212,,,,,,746.99,49,189,-421,,,,,,,
715.981,53,156,-427,,,,,,747,49,184,777,,,,,,,
715.991,53,150,-239,,,,,,747.011,49,183,323,,,,,,,
716.001,53,157,-540,,,,,,747.02,49,183,1678,,,,,,,
716.011,53,145,-190,,,,,,747.031,49,182,1799,,,,,,,
716.021,53,159,-408,,,,,,747.04,49,186,2516,,,,,,,
716.031,53,146,-80,,,,,,747.05,49,177,1269,,,,,,,
716.041,53,156,-526,,,,,,747.061,49,178,2162,,,,,,,
716.051,53,148,-1,,,,,,747.07,61,180,1173,,,,,,,
716.061,53,156,-517,,,,,,747.081,61,184,1865,,,,,,,
716.071,53,147,-175,,,,,,747.09,61,169,298,,,,,,,
716.081,53,156,-335,,,,,,747.101,61,183,1921,,,,,,,
716.091,53,148,98,,,,,,747.111,61,180,143,,,,,,,
716.101,53,154,-521,,,,,,747.12,61,184,1459,,,,,,,
716.111,53,147,-152,,,,,,747.131,61,176,-290,,,,,,,
716.121,53,156,-370,,,,,,747.14,61,180,1065,,,,,,,
716.131,53,148,132,,,,,,747.15,61,177,-208,,,,,,,
716.141,53,158,-527,,,,,,747.161,61,181,888,,,,,,,
716.151,53,146,-63,,,,,,747.17,61,166,-40,,,,,,,
716.161,53,161,327,,,,,,747.181,61,186,566,,,,,,,
716.171,53,149,-73,,,,,,747.19,61,174,-813,,,,,,,
716.181,53,153,-174,,,,,,747.2,61,176,581,,,,,,,
716.191,53,147,-28,,,,,,747.21,61,177,-325,,,,,,,
716.201,53,155,-10,,,,,,747.22,61,180,230,,,,,,,
716.212,53,145,-128,,,,,,747.23,61,166,-787,,,,,,,
716.221,53,155,82,,,,,,747.24,61,180,740,,,,,,,
716.231,53,145,-78,,,,,,747.25,61,177,-353,,,,,,,
716.241,53,156,-69,,,,,,747.26,61,176,781,,,,,,,
716.251,53,147,-110,,,,,,747.27,61,173,-601,,,,,,,
716.262,53,159,1,,,,,,747.28,61,172,448,,,,,,,
716.271,53,153,19,,,,,,747.29,61,179,-676,,,,,,,
716.282,53,174,235,,,,,,747.3,61,180,284,,,,,,,
716.291,53,173,66,,,,,,747.31,61,172,-435,,,,,,,
716.301,53,172,-90,,,,,,747.32,61,163,123,,,,,,,
716.311,53,145,6,,,,,,747.33,61,168,-974,,,,,,,
716.321,53,154,-297,,,,,,747.34,61,171,451,,,,,,,
716.331,53,144,144,,,,,,747.35,61,161,-374,,,,,,,
716.341,53,159,-235,,,,,,747.36,61,166,-193,,,,,,,
716.351,53,148,-8,,,,,,747.37,61,167,-773,,,,,,,
716.361,53,157,-302,,,,,,747.38,61,162,607,,,,,,,
716.371,53,149,15,,,,,,747.39,61,170,-718,,,,,,,
716.382,53,157,-540,,,,,,747.4,61,164,255,,,,,,,
716.391,53,148,257,,,,,,747.41,61,170,-585,,,,,,,
716.401,53,158,-171,,,,,,747.42,61,154,468,,,,,,,
716.412,53,149,849,,,,,,747.43,61,166,-131,,,,,,,
716.421,53,161,1578,,,,,,747.44,61,149,139,,,,,,,
716.431,53,150,1139,,,,,,747.45,61,155,-768,,,,,,,
716.441,53,160,-214,,,,,,747.461,61,144,-13,,,,,,,
716.452,53,155,-327,,,,,,747.47,61,159,-317,,,,,,,
716.461,53,161,-704,,,,,,747.48,61,155,-247,,,,,,,
716.471,53,158,85,,,,,,747.49,61,156,-664,,,,,,,
716.482,53,167,-414,,,,,,747.5,61,150,373,,,,,,,
716.491,53,158,191,,,,,,747.51,61,153,-847,,,,,,,
716.502,53,171,-538,,,,,,747.52,61,159,-74,,,,,,,
716.511,53,162,215,,,,,,747.531,61,168,-706,,,,,,,
716.521,53,173,-296,,,,,,747.54,61,174,557,,,,,,,
716.532,53,164,88,,,,,,747.55,61,167,-1290,,,,,,,
716.541,53,169,-144,,,,,,747.56,61,146,85,,,,,,,
716.551,53,156,405,,,,,,747.57,61,148,-1526,,,,,,,
716.561,53,164,-289,,,,,,747.581,61,137,-538,,,,,,,
716.571,53,153,193,,,,,,747.59,61,131,-1707,,,,,,,
716.581,53,157,-82,,,,,,747.6,61,128,-251,,,,,,,
716.591,53,146,504,,,,,,747.61,61,125,-936,,,,,,,
716.601,53,155,73,,,,,,747.62,61,118,-359,,,,,,,
716.611,53,147,800,,,,,,747.631,61,119,-1126,,,,,,,
716.621,53,159,266,,,,,,747.64,61,116,-29,,,,,,,
716.631,53,148,893,,,,,,747.651,61,114,-625,,,,,,,
716.641,53,156,524,,,,,,747.66,61,115,676,,,,,,,
716.652,53,147,996,,,,,,747.67,61,137,340,,,,,,,
716.662,53,154,475,,,,,,747.68,61,133,1275,,,,,,,
716.671,53,147,746,,,,,,747.69,61,150,-1398,,,,,,,
716.682,53,155,100,,,,,,747.7,61,149,-382,,,,,,,
716.691,53,149,269,,,,,,747.71,61,148,-1893,,,,,,,
716.701,53,156,-397,,,,,,747.72,61,153,-1285,,,,,,,
716.711,53,148,160,,,,,,747.73,61,159,-2337,,,,,,,
716.721,53,154,-477,,,,,,747.74,61,165,-1124,,,,,,,
716.731,53,150,-104,,,,,,747.751,61,172,-2833,,,,,,,
716.741,53,154,-606,,,,,,747.761,61,174,-1758,,,,,,,
716.751,62,145,85,,,,,,747.77,61,179,-2736,,,,,,,
716.761,62,157,-522,,,,,,747.781,61,171,-1794,,,,,,,
716.771,62,148,-101,,,,,,747.79,61,177,-2605,,,,,,,
716.782,62,157,-503,,,,,,747.8,61,166,-216,,,,,,,
716.791,62,147,-148,,,,,,747.81,61,160,-1285,,,,,,,
716.801,62,155,-529,,,,,,747.82,61,159,112,,,,,,,
716.812,62,148,24,,,,,,747.83,61,158,-451,,,,,,,
716.821,62,156,-363,,,,,,747.84,61,152,948,,,,,,,
716.832,62,146,-18,,,,,,747.85,61,150,-428,,,,,,,
716.841,62,156,-287,,,,,,747.86,61,132,1589,,,,,,,
716.852,62,146,-92,,,,,,747.87,61,144,80,,,,,,,
716.861,62,156,-484,,,,,,747.881,61,154,2180,,,,,,,
716.871,62,146,114,,,,,,747.89,61,164,707,,,,,,,
716.882,62,159,-317,,,,,,747.9,61,172,2339,,,,,,,
716.891,62,144,47,,,,,,747.911,61,173,649,,,,,,,
716.901,62,156,-392,,,,,,747.92,61,179,2045,,,,,,,
716.912,62,147,217,,,,,,747.931,61,188,386,,,,,,,
716.922,62,155,-566,,,,,,747.94,61,187,1645,,,,,,,
716.932,62,147,110,,,,,,747.95,64,189,-629,,,,,,,
716.941,62,155,-540,,,,,,747.96,64,179,1149,,,,,,,
716.952,62,145,191,,,,,,747.97,64,172,-1227,,,,,,,
716.961,62,155,-516,,,,,,747.98,64,161,571,,,,,,,
716.971,62,146,169,,,,,,747.99,64,153,-1556,,,,,,,
716.982,62,157,-304,,,,,,748,64,146,-506,,,,,,,
716.991,62,145,50,,,,,,748.01,64,149,-878,,,,,,,
717.002,62,156,-424,,,,,,748.02,64,147,1248,,,,,,,
717.012,62,149,98,,,,,,748.031,64,145,94,,,,,,,
717.021,62,158,-392,,,,,,748.04,64,138,2150,,,,,,,
717.032,62,149,157,,,,,,748.051,64,144,455,,,,,,,
717.042,62,155,-327,,,,,,748.06,64,132,2842,,,,,,,
717.051,62,145,16,,,,,,748.07,64,141,835,,,,,,,
717.062,62,157,-337,,,,,,748.08,64,138,2940,,,,,,,
717.071,62,144,262,,,,,,748.09,64,138,515,,,,,,,
717.082,62,155,-380,,,,,,748.1,64,132,2044,,,,,,,
717.092,62,144,97,,,,,,748.11,64,144,-793,,,,,,,
717.102,62,154,-305,,,,,,748.12,64,133,706,,,,,,,
717.112,62,144,108,,,,,,748.13,64,140,-1816,,,,,,,
717.122,62,156,-367,,,,,,748.14,64,132,602,,,,,,,
717.132,62,153,182,,,,,,748.15,64,136,-1747,,,,,,,
717.141,62,183,-123,,,,,,748.16,64,130,241,,,,,,,
717.152,62,173,330,,,,,,748.17,64,141,-2325,,,,,,,
717.161,62,164,-114,,,,,,748.181,64,133,-132,,,,,,,
717.171,62,147,136,,,,,,748.192,64,143,-2226,,,,,,,
717.181,62,152,-361,,,,,,748.201,64,137,-350,,,,,,,
717.192,62,144,103,,,,,,748.212,64,147,-1503,,,,,,,
717.201,62,156,-407,,,,,,748.221,64,131,-155,,,,,,,
717.212,62,143,60,,,,,,748.231,64,141,-1666,,,,,,,
717.222,62,156,-405,,,,,,748.241,64,135,128,,,,,,,
717.232,62,145,236,,,,,,748.251,64,142,-1226,,,,,,,
717.242,62,160,-360,,,,,,748.261,64,135,-302,,,,,,,
717.251,62,144,341,,,,,,748.271,64,149,-1431,,,,,,,
717.261,62,158,160,,,,,,748.281,64,139,86,,,,,,,
717.272,62,150,1352,,,,,,748.291,64,151,-1552,,,,,,,
717.281,62,158,1415,,,,,,748.301,64,139,-103,,,,,,,
717.292,62,147,999,,,,,,748.311,64,150,-948,,,,,,,
717.302,62,160,-391,,,,,,748.321,64,145,726,,,,,,,
717.312,62,151,-131,,,,,,748.331,64,173,-1770,,,,,,,
717.322,62,164,-563,,,,,,748.341,64,178,777,,,,,,,
717.332,62,154,253,,,,,,748.351,64,163,-1743,,,,,,,
717.341,62,166,-613,,,,,,748.361,64,139,936,,,,,,,
717.352,62,158,234,,,,,,748.371,64,148,-1880,,,,,,,
717.362,62,171,-454,,,,,,748.382,64,137,997,,,,,,,
717.371,62,159,212,,,,,,748.391,64,146,-1862,,,,,,,
717.382,62,173,-467,,,,,,748.401,64,132,1275,,,,,,,
717.392,62,161,87,,,,,,748.412,64,141,-1362,,,,,,,
717.402,62,166,-131,,,,,,748.421,64,133,1552,,,,,,,
717.412,62,156,136,,,,,,748.431,64,139,-1273,,,,,,,
717.422,62,163,-318,,,,,,748.441,64,130,1270,,,,,,,
717.432,62,148,497,,,,,,748.451,64,145,-1173,,,,,,,
717.442,62,157,-117,,,,,,748.461,64,136,2230,,,,,,,
717.452,62,148,444,,,,,,748.471,64,143,774,,,,,,,
717.462,62,156,81,,,,,,748.481,64,142,2511,,,,,,,
717.471,62,149,664,,,,,,748.491,64,165,-1287,,,,,,,
717.482,62,154,337,,,,,,748.501,64,161,840,,,,,,,
717.492,62,146,912,,,,,,748.511,64,169,-1801,,,,,,,
717.502,62,157,392,,,,,,748.521,64,162,732,,,,,,,
717.512,62,145,1037,,,,,,748.532,64,177,-1870,,,,,,,
717.522,62,154,447,,,,,,748.541,64,168,920,,,,,,,
717.532,62,147,718,,,,,,748.551,64,187,-1870,,,,,,,
717.542,62,160,202,,,,,,748.562,97,176,732,,,,,,,
717.551,62,143,389,,,,,,748.572,97,187,-2164,,,,,,,
717.562,62,156,-278,,,,,,748.581,97,179,772,,,,,,,
717.572,62,142,-125,,,,,,748.591,97,184,-1721,,,,,,,
717.582,62,156,-404,,,,,,748.601,97,172,781,,,,,,,
717.591,62,147,-151,,,,,,748.611,97,177,-1688,,,,,,,
717.602,62,156,-311,,,,,,748.621,97,170,2329,,,,,,,
717.612,62,147,-287,,,,,,748.631,97,176,-217,,,,,,,
717.622,62,155,-401,,,,,,748.641,97,166,2593,,,,,,,
717.631,62,143,-245,,,,,,748.651,97,177,-63,,,,,,,
717.642,62,156,-307,,,,,,748.662,97,169,2851,,,,,,,
717.651,62,145,-57,,,,,,748.671,97,175,114,,,,,,,
717.662,62,156,-372,,,,,,748.681,97,168,3025,,,,,,,
717.672,62,146,36,,,,,,748.691,97,174,576,,,,,,,
717.682,62,156,-406,,,,,,748.701,97,169,3364,,,,,,,
717.691,62,145,9,,,,,,748.711,97,174,356,,,,,,,
717.702,62,155,-519,,,,,,748.721,97,166,2938,,,,,,,
717.712,62,145,-165,,,,,,748.732,97,176,-30,,,,,,,
717.721,62,154,-270,,,,,,748.741,97,166,2551,,,,,,,
717.731,62,146,-41,,,,,,748.751,97,173,-716,,,,,,,
717.742,62,155,-242,,,,,,748.761,97,165,2267,,,,,,,
717.751,62,143,-12,,,,,,748.771,97,170,-828,,,,,,,
717.761,62,157,-366,,,,,,748.781,97,164,2301,,,,,,,
717.771,62,147,-70,,,,,,748.791,97,169,-886,,,,,,,
717.782,62,153,-223,,,,,,748.801,97,161,2069,,,,,,,
717.791,62,145,-57,,,,,,748.811,97,173,-826,,,,,,,
717.802,62,154,-160,,,,,,748.821,97,165,1871,,,,,,,
717.812,62,144,-111,,,,,,748.831,97,171,-803,,,,,,,
717.822,62,154,-205,,,,,,748.841,97,164,1873,,,,,,,
717.831,62,146,-192,,,,,,748.851,97,175,-1207,,,,,,,
717.841,62,154,-116,,,,,,748.861,97,164,1776,,,,,,,
717.852,62,145,96,,,,,,748.871,97,164,-1170,,,,,,,
717.862,62,158,-305,,,,,,748.881,97,154,1494,,,,,,,
717.871,62,147,104,,,,,,748.892,97,167,-1170,,,,,,,
717.881,62,160,-452,,,,,,748.901,97,160,1392,,,,,,,
717.891,62,147,81,,,,,,748.911,97,164,-1182,,,,,,,
717.901,62,156,-414,,,,,,748.921,97,156,1816,,,,,,,
717.912,62,146,-47,,,,,,748.932,97,186,-1456,,,,,,,
717.922,62,152,-204,,,,,,748.941,97,155,1658,,,,,,,
717.932,62,144,139,,,,,,748.951,97,183,-1228,,,,,,,
717.941,62,155,-344,,,,,,748.961,97,157,1648,,,,,,,
717.952,62,146,68,,,,,,748.971,97,186,-1338,,,,,,,
717.961,62,152,-143,,,,,,748.981,97,157,1612,,,,,,,
717.971,62,147,64,,,,,,748.991,97,184,-1115,,,,,,,
717.982,62,153,-272,,,,,,749.001,97,153,1290,,,,,,,
717.992,62,149,94,,,,,,749.011,97,176,-1701,,,,,,,
718.002,62,174,-85,,,,,,749.022,97,147,1534,,,,,,,
718.012,62,180,368,,,,,,749.031,97,177,-1411,,,,,,,
718.023,62,179,-129,,,,,,749.041,97,144,1226,,,,,,,
718.031,62,148,116,,,,,,749.051,97,172,-1654,,,,,,,
718.042,62,154,-34,,,,,,749.061,97,139,946,,,,,,,
718.052,62,143,41,,,,,,749.071,97,171,-1725,,,,,,,
718.061,62,156,-418,,,,,,749.081,97,135,822,,,,,,,
718.072,62,145,161,,,,,,749.091,97,166,-1353,,,,,,,
718.081,62,153,-402,,,,,,749.101,97,139,1053,,,,,,,
718.091,62,149,84,,,,,,749.111,97,180,-1420,,,,,,,
718.102,63,153,-241,,,,,,749.121,97,167,959,,,,,,,
718.112,63,147,147,,,,,,749.131,97,186,-1601,,,,,,,
718.122,63,156,-111,,,,,,749.141,97,138,507,,,,,,,
718.132,63,150,690,,,,,,749.151,97,163,-2075,,,,,,,
718.141,63,155,1713,,,,,,749.161,97,133,585,,,,,,,
718.152,63,150,1662,,,,,,749.171,97,166,-2149,,,,,,,
718.162,63,159,976,,,,,,749.181,97,134,369,,,,,,,
718.172,63,153,-377,,,,,,749.192,97,163,-2318,,,,,,,
718.182,63,161,-27,,,,,,749.201,97,131,373,,,,,,,
718.192,63,155,-471,,,,,,749.211,97,161,-2440,,,,,,,
718.202,63,167,10,,,,,,749.221,97,129,171,,,,,,,
718.212,63,157,-247,,,,,,749.231,97,163,-2113,,,,,,,
718.222,63,171,110,,,,,,749.242,97,131,1059,,,,,,,
718.232,63,161,-256,,,,,,749.251,97,160,-460,,,,,,,
718.242,63,173,15,,,,,,749.261,97,133,1531,,,,,,,
718.252,63,162,-213,,,,,,749.271,97,162,-2386,,,,,,,
718.262,63,170,57,,,,,,749.281,97,132,113,,,,,,,
718.272,63,159,-117,,,,,,749.291,80,159,-2907,,,,,,,
718.282,63,158,158,,,,,,749.301,80,137,385,,,,,,,
718.292,63,151,-97,,,,,,749.312,80,166,-2582,,,,,,,
718.302,63,159,63,,,,,,749.322,80,141,321,,,,,,,
718.313,63,148,356,,,,,,749.331,80,174,-2547,,,,,,,
718.323,63,156,202,,,,,,749.341,80,145,277,,,,,,,
718.333,63,149,472,,,,,,749.351,80,177,-2468,,,,,,,
718.343,63,155,319,,,,,,749.361,80,144,476,,,,,,,
718.352,63,144,603,,,,,,749.371,80,174,-2512,,,,,,,
718.362,63,155,590,,,,,,749.381,80,139,397,,,,,,,
718.372,63,145,1014,,,,,,749.391,80,166,-2311,,,,,,,
718.382,63,155,489,,,,,,749.401,80,131,623,,,,,,,
718.392,63,145,756,,,,,,749.412,80,165,-2205,,,,,,,
718.403,63,154,479,,,,,,749.421,80,130,501,,,,,,,
718.412,63,149,201,,,,,,749.431,80,157,-1934,,,,,,,
718.422,63,154,-368,,,,,,749.441,80,128,996,,,,,,,
718.432,63,146,33,,,,,,749.451,80,156,-1628,,,,,,,
718.442,63,156,-393,,,,,,749.461,80,127,1292,,,,,,,
718.452,63,147,-269,,,,,,749.471,80,156,-1308,,,,,,,
718.462,63,153,-368,,,,,,749.481,80,125,1530,,,,,,,
718.472,63,147,-66,,,,,,749.491,80,158,-1268,,,,,,,
718.482,63,155,-682,,,,,,749.501,80,128,1314,,,,,,,
718.492,63,145,-114,,,,,,749.511,80,154,-1512,,,,,,,
718.502,63,157,-694,,,,,,749.521,80,129,927,,,,,,,
718.513,63,147,43,,,,,,749.531,80,156,-2009,,,,,,,
718.522,63,156,-616,,,,,,749.541,80,125,632,,,,,,,
718.533,63,147,-8,,,,,,749.551,80,157,-2195,,,,,,,
718.543,63,156,-361,,,,,,749.561,80,128,489,,,,,,,
718.552,63,149,45,,,,,,749.571,80,158,-2126,,,,,,,
718.563,63,157,-552,,,,,,749.581,80,125,715,,,,,,,
718.573,63,145,31,,,,,,749.591,80,156,-2123,,,,,,,
718.583,63,158,-227,,,,,,749.601,80,126,434,,,,,,,
718.592,63,143,146,,,,,,749.611,80,155,-2314,,,,,,,
718.602,63,158,-555,,,,,,749.621,80,125,830,,,,,,,
718.612,63,148,164,,,,,,749.631,80,151,-2127,,,,,,,
718.622,63,153,-392,,,,,,749.641,80,125,665,,,,,,,
718.633,63,148,86,,,,,,749.651,80,154,-1754,,,,,,,
718.643,63,155,-356,,,,,,749.661,80,123,798,,,,,,,
718.652,63,145,133,,,,,,749.671,80,150,-1701,,,,,,,
718.662,63,156,-464,,,,,,749.682,80,126,693,,,,,,,
718.672,63,144,158,,,,,,749.691,80,152,-1806,,,,,,,
718.682,63,158,-332,,,,,,749.701,80,126,817,,,,,,,
718.693,63,146,236,,,,,,749.711,80,156,-1790,,,,,,,
718.702,63,155,-474,,,,,,749.721,80,128,867,,,,,,,
718.712,63,147,272,,,,,,749.731,80,160,-1687,,,,,,,
718.722,63,158,-560,,,,,,749.742,80,125,786,,,,,,,
718.733,63,149,260,,,,,,749.751,80,154,-1701,,,,,,,
718.743,63,161,-232,,,,,,749.761,80,127,745,,,,,,,
718.753,63,149,5,,,,,,749.771,80,152,-1656,,,,,,,
718.762,63,155,-248,,,,,,749.782,80,127,828,,,,,,,
718.773,63,147,132,,,,,,749.792,80,152,-1651,,,,,,,
718.783,63,155,-276,,,,,,749.801,80,125,762,,,,,,,
718.793,63,145,173,,,,,,749.812,80,152,-1689,,,,,,,
718.803,63,158,-356,,,,,,749.821,80,126,839,,,,,,,
718.812,63,145,298,,,,,,749.831,80,152,-1688,,,,,,,
718.822,63,157,-276,,,,,,749.841,80,124,1233,,,,,,,
718.832,63,148,136,,,,,,749.851,80,157,-1511,,,,,,,
718.842,63,158,-209,,,,,,749.861,80,151,1649,,,,,,,
718.852,63,155,308,,,,,,749.871,80,187,-1209,,,,,,,
718.862,63,182,59,,,,,,749.882,80,144,1223,,,,,,,
718.873,63,170,504,,,,,,749.891,80,154,-1505,,,,,,,
718.882,63,168,-113,,,,,,749.901,80,122,1047,,,,,,,
718.892,63,146,153,,,,,,749.911,80,151,-1459,,,,,,,
718.903,63,155,-297,,,,,,749.922,80,124,1006,,,,,,,
718.912,63,148,152,,,,,,749.931,80,151,-1745,,,,,,,
718.922,63,157,-280,,,,,,749.941,80,128,1083,,,,,,,
718.932,63,148,283,,,,,,749.951,80,156,-1573,,,,,,,
718.942,63,159,-299,,,,,,749.961,88,125,1117,,,,,,,
718.953,63,149,217,,,,,,749.971,88,157,-1582,,,,,,,
718.963,63,158,-149,,,,,,749.981,88,129,1451,,,,,,,
718.972,63,147,302,,,,,,749.991,88,157,-788,,,,,,,
718.982,63,162,90,,,,,,750.001,88,131,3423,,,,,,,
718.992,63,150,1730,,,,,,750.012,88,161,141,,,,,,,
719.003,63,158,1696,,,,,,750.021,88,134,1490,,,,,,,
719.012,63,152,905,,,,,,750.031,88,162,-1882,,,,,,,
719.023,63,163,-362,,,,,,750.041,88,140,910,,,,,,,
719.032,63,151,-214,,,,,,750.051,88,167,-1698,,,,,,,
719.042,63,166,-467,,,,,,750.061,88,144,1078,,,,,,,
719.052,58,160,-142,,,,,,750.071,88,174,-1404,,,,,,,
719.062,58,167,-130,,,,,,750.082,88,150,1183,,,,,,,
719.072,58,163,-159,,,,,,750.092,88,180,-1549,,,,,,,
719.082,58,172,-357,,,,,,750.101,88,151,1264,,,,,,,
719.092,58,165,0,,,,,,750.111,88,181,-1507,,,,,,,
719.102,58,174,-162,,,,,,750.121,88,150,1240,,,,,,,
719.112,58,164,140,,,,,,750.131,88,172,-1219,,,,,,,
719.122,58,173,-61,,,,,,750.141,88,141,1656,,,,,,,
719.132,58,157,106,,,,,,750.151,88,165,-1239,,,,,,,
719.142,58,163,72,,,,,,750.161,88,135,1706,,,,,,,
719.152,58,153,157,,,,,,750.171,88,166,-954,,,,,,,
719.163,58,158,55,,,,,,750.183,88,135,502,,,,,,,
719.172,58,149,404,,,,,,750.193,88,164,610,,,,,,,
719.182,58,156,184,,,,,,750.203,88,130,722,,,,,,,
719.192,58,149,658,,,,,,750.213,88,160,1093,,,,,,,
719.202,58,160,347,,,,,,750.223,88,131,1029,,,,,,,
719.212,58,151,795,,,,,,750.233,88,161,1303,,,,,,,
719.222,58,157,708,,,,,,750.244,88,134,1011,,,,,,,
719.232,58,149,881,,,,,,750.253,88,159,1213,,,,,,,
719.242,58,157,573,,,,,,750.263,88,136,785,,,,,,,
719.252,58,150,830,,,,,,750.273,88,162,567,,,,,,,
719.262,58,157,-39,,,,,,750.283,88,139,139,,,,,,,
719.272,58,149,190,,,,,,750.293,88,159,133,,,,,,,
719.282,58,158,-143,,,,,,750.303,88,138,-300,,,,,,,
719.293,58,148,-81,,,,,,750.313,88,162,-315,,,,,,,
719.302,58,158,-384,,,,,,750.323,88,136,1318,,,,,,,
719.312,58,147,-340,,,,,,750.333,88,162,-1916,,,,,,,
719.322,58,159,-538,,,,,,750.343,88,137,1034,,,,,,,
719.332,58,146,40,,,,,,750.353,88,162,-1756,,,,,,,
719.343,58,161,-542,,,,,,750.363,88,137,1098,,,,,,,
719.352,58,149,-150,,,,,,750.373,88,166,-1756,,,,,,,
719.362,58,159,-375,,,,,,750.384,88,137,1019,,,,,,,
719.372,58,149,-203,,,,,,750.393,88,161,-1644,,,,,,,
719.382,58,157,-437,,,,,,750.403,88,137,1236,,,,,,,
719.392,58,148,-24,,,,,,750.413,88,163,-1870,,,,,,,
719.403,58,158,-328,,,,,,750.423,88,136,1335,,,,,,,
719.412,58,147,-47,,,,,,750.433,88,165,-1693,,,,,,,
719.422,58,158,-306,,,,,,750.443,88,133,1475,,,,,,,
719.432,58,146,-11,,,,,,750.453,88,166,-1637,,,,,,,
719.442,58,158,-261,,,,,,750.463,88,137,1340,,,,,,,
719.452,58,148,-92,,,,,,750.473,88,165,-1629,,,,,,,
719.463,58,158,-174,,,,,,750.483,88,139,1299,,,,,,,
719.472,58,150,44,,,,,,750.493,88,164,-1682,,,,,,,
719.482,58,153,-512,,,,,,750.503,88,143,1466,,,,,,,
719.492,58,147,181,,,,,,750.513,88,167,-1364,,,,,,,
719.503,58,159,-282,,,,,,750.523,88,138,1331,,,,,,,
719.512,58,147,51,,,,,,750.533,88,168,-1487,,,,,,,
719.523,58,157,-157,,,,,,750.543,88,139,1416,,,,,,,
719.533,58,148,-6,,,,,,750.553,88,163,-1592,,,,,,,
719.542,58,159,-387,,,,,,750.563,88,139,1477,,,,,,,
719.552,58,149,34,,,,,,750.573,88,163,-1368,,,,,,,
719.562,58,159,-152,,,,,,750.583,88,142,1398,,,,,,,
719.573,58,155,-89,,,,,,750.593,88,167,-1401,,,,,,,
719.582,58,164,-192,,,,,,750.603,88,139,1309,,,,,,,
719.592,58,153,86,,,,,,750.613,88,167,-1122,,,,,,,
719.602,58,159,-84,,,,,,750.623,88,142,1442,,,,,,,
719.612,58,148,-94,,,,,,750.633,88,176,-1022,,,,,,,
719.622,58,159,-124,,,,,,750.643,88,172,1626,,,,,,,
719.632,58,149,171,,,,,,750.653,88,204,-987,,,,,,,
719.643,58,159,-159,,,,,,750.663,88,157,1728,,,,,,,
719.652,58,152,-1,,,,,,750.673,88,170,-1129,,,,,,,
719.663,58,156,-66,,,,,,750.684,88,141,1290,,,,,,,
719.672,58,148,79,,,,,,750.693,88,163,-1230,,,,,,,
719.682,58,159,-192,,,,,,750.703,88,144,1283,,,,,,,
719.692,58,157,34,,,,,,750.713,88,168,-1300,,,,,,,
719.702,58,182,164,,,,,,750.723,88,142,1557,,,,,,,
719.712,58,180,335,,,,,,750.733,88,171,-1301,,,,,,,
719.722,58,171,8,,,,,,750.743,88,145,1368,,,,,,,
719.732,58,150,216,,,,,,750.754,88,169,-993,,,,,,,
719.743,58,157,-302,,,,,,750.763,88,148,1834,,,,,,,
719.752,58,147,129,,,,,,750.773,88,171,-105,,,,,,,
719.762,58,160,-235,,,,,,750.783,69,144,3827,,,,,,,
719.772,58,153,168,,,,,,750.793,69,176,209,,,,,,,
719.782,58,157,-62,,,,,,750.803,69,150,1803,,,,,,,
719.792,58,154,-116,,,,,,750.813,69,177,-1625,,,,,,,
719.802,58,161,-315,,,,,,750.823,69,152,1328,,,,,,,
719.813,58,153,298,,,,,,750.833,69,180,-1553,,,,,,,
719.823,58,162,207,,,,,,750.843,69,158,1483,,,,,,,
719.832,58,152,1252,,,,,,750.853,69,187,-1382,,,,,,,
719.843,58,162,1632,,,,,,750.863,69,166,1563,,,,,,,
719.852,58,156,1131,,,,,,750.873,69,193,-1456,,,,,,,
719.862,58,162,-355,,,,,,750.883,69,166,1738,,,,,,,
719.873,58,157,-388,,,,,,,,,,,,,,,,
719.882,58,166,-549,,,,,,,,,,,,,,,,
719.892,58,159,81,,,,,,,,,,,,,,,,
719.902,58,171,-161,,,,,,,,,,,,,,,,
719.912,58,166,-245,,,,,,,,,,,,,,,,
719.922,58,173,-129,,,,,,,,,,,,,,,,
719.932,58,169,52,,,,,,,,,,,,,,,,
719.942,58,177,-147,,,,,,,,,,,,,,,,
719.952,58,169,253,,,,,,,,,,,,,,,,
719.962,58,173,-203,,,,,,,,,,,,,,,,
719.972,58,163,228,,,,,,,,,,,,,,,,
719.982,58,166,38,,,,,,,,,,,,,,,,
719.992,58,155,353,,,,,,,,,,,,,,,,
720.002,58,159,76,,,,,,,,,,,,,,,,
720.013,58,153,478,,,,,,,,,,,,,,,,
720.022,58,160,152,,,,,,,,,,,,,,,,
720.032,58,151,558,,,,,,,,,,,,,,,,
720.042,58,161,639,,,,,,,,,,,,,,,,
720.052,58,147,753,,,,,,,,,,,,,,,,
720.062,58,157,802,,,,,,,,,,,,,,,,
720.072,58,152,543,,,,,,,,,,,,,,,,
720.082,58,158,980,,,,,,,,,,,,,,,,
720.092,58,150,533,,,,,,,,,,,,,,,,
720.102,58,158,532,,,,,,,,,,,,,,,,
720.113,58,152,215,,,,,,,,,,,,,,,,
720.122,58,158,-177,,,,,,,,,,,,,,,,
720.132,58,153,-115,,,,,,,,,,,,,,,,
720.142,58,161,-221,,,,,,,,,,,,,,,,
720.152,58,150,-332,,,,,,,,,,,,,,,,
720.163,58,158,-209,,,,,,,,,,,,,,,,
720.173,58,152,-390,,,,,,,,,,,,,,,,
720.183,58,158,-350,,,,,,,,,,,,,,,,
720.193,58,153,-344,,,,,,,,,,,,,,,,
720.203,58,161,-241,,,,,,,,,,,,,,,,
720.213,58,150,-230,,,,,,,,,,,,,,,,
720.223,58,157,-263,,,,,,,,,,,,,,,,
720.233,58,153,-484,,,,,,,,,,,,,,,,
720.243,58,159,-114,,,,,,,,,,,,,,,,
720.253,58,148,-469,,,,,,,,,,,,,,,,
720.263,58,160,14,,,,,,,,,,,,,,,,
720.274,58,149,-388,,,,,,,,,,,,,,,,
720.284,58,159,-107,,,,,,,,,,,,,,,,
720.294,58,149,-198,,,,,,,,,,,,,,,,
720.303,58,159,-311,,,,,,,,,,,,,,,,
720.313,58,151,-121,,,,,,,,,,,,,,,,
720.323,58,160,-233,,,,,,,,,,,,,,,,
720.333,58,148,3,,,,,,,,,,,,,,,,
720.343,58,161,-373,,,,,,,,,,,,,,,,
720.353,58,149,56,,,,,,,,,,,,,,,,
720.363,58,159,-231,,,,,,,,,,,,,,,,
720.373,58,149,-131,,,,,,,,,,,,,,,,
720.384,58,159,-468,,,,,,,,,,,,,,,,
720.393,58,148,-13,,,,,,,,,,,,,,,,
720.403,58,158,-388,,,,,,,,,,,,,,,,
720.414,58,152,-72,,,,,,,,,,,,,,,,
720.423,58,162,-374,,,,,,,,,,,,,,,,
720.434,58,156,87,,,,,,,,,,,,,,,,
720.444,58,162,-121,,,,,,,,,,,,,,,,
720.454,58,152,74,,,,,,,,,,,,,,,,
720.463,58,157,-210,,,,,,,,,,,,,,,,
720.473,58,150,85,,,,,,,,,,,,,,,,
720.483,58,156,-180,,,,,,,,,,,,,,,,
720.494,58,151,-51,,,,,,,,,,,,,,,,
720.503,58,157,-119,,,,,,,,,,,,,,,,
720.514,58,147,172,,,,,,,,,,,,,,,,
720.523,58,158,-179,,,,,,,,,,,,,,,,
720.533,58,149,202,,,,,,,,,,,,,,,,
720.544,58,166,-170,,,,,,,,,,,,,,,,
720.553,58,176,296,,,,,,,,,,,,,,,,
720.564,58,184,272,,,,,,,,,,,,,,,,
720.573,58,164,-9,,,,,,,,,,,,,,,,
720.584,58,157,32,,,,,,,,,,,,,,,,
720.594,58,147,-97,,,,,,,,,,,,,,,,
720.604,58,159,-189,,,,,,,,,,,,,,,,
720.614,58,151,-16,,,,,,,,,,,,,,,,
720.623,58,159,-133,,,,,,,,,,,,,,,,
720.634,58,152,118,,,,,,,,,,,,,,,,
720.644,58,159,-280,,,,,,,,,,,,,,,,
720.653,58,151,152,,,,,,,,,,,,,,,,
720.664,58,161,-80,,,,,,,,,,,,,,,,
720.673,58,154,484,,,,,,,,,,,,,,,,
720.684,58,160,1041,,,,,,,,,,,,,,,,
720.694,58,152,2138,,,,,,,,,,,,,,,,
720.704,58,162,983,,,,,,,,,,,,,,,,
720.714,58,154,58,,,,,,,,,,,,,,,,
720.723,58,165,-460,,,,,,,,,,,,,,,,
720.734,58,160,-298,,,,,,,,,,,,,,,,
720.743,58,168,-126,,,,,,,,,,,,,,,,
720.753,58,162,-77,,,,,,,,,,,,,,,,
720.763,58,175,-163,,,,,,,,,,,,,,,,
720.773,58,163,-68,,,,,,,,,,,,,,,,
720.783,58,176,-207,,,,,,,,,,,,,,,,
720.793,58,169,70,,,,,,,,,,,,,,,,
720.803,58,174,-159,,,,,,,,,,,,,,,,
720.813,58,162,173,,,,,,,,,,,,,,,,
720.824,58,171,-83,,,,,,,,,,,,,,,,
720.833,58,153,141,,,,,,,,,,,,,,,,
720.843,58,162,-53,,,,,,,,,,,,,,,,
720.853,58,152,323,,,,,,,,,,,,,,,,
720.863,58,160,193,,,,,,,,,,,,,,,,
720.873,58,151,374,,,,,,,,,,,,,,,,
720.884,58,159,492,,,,,,,,,,,,,,,,
720.893,58,149,592,,,,,,,,,,,,,,,,
720.903,58,158,482,,,,,,,,,,,,,,,,
720.914,58,150,846,,,,,,,,,,,,,,,,
720.923,58,159,688,,,,,,,,,,,,,,,,
720.934,58,149,748,,,,,,,,,,,,,,,,
720.943,29,161,200,,,,,,,,,,,,,,,,
720.953,29,151,476,,,,,,,,,,,,,,,,
720.963,29,159,-92,,,,,,,,,,,,,,,,
720.973,29,151,18,,,,,,,,,,,,,,,,
720.984,29,163,-400,,,,,,,,,,,,,,,,
720.993,29,146,-288,,,,,,,,,,,,,,,,
721.003,29,159,-470,,,,,,,,,,,,,,,,
721.014,29,149,-252,,,,,,,,,,,,,,,,
721.024,29,159,-504,,,,,,,,,,,,,,,,
721.034,29,148,-192,,,,,,,,,,,,,,,,
721.043,29,159,-393,,,,,,,,,,,,,,,,
721.053,29,148,5,,,,,,,,,,,,,,,,
721.063,29,161,-586,,,,,,,,,,,,,,,,
721.073,29,150,-252,,,,,,,,,,,,,,,,
721.084,29,160,-354,,,,,,,,,,,,,,,,
721.094,29,146,-132,,,,,,,,,,,,,,,,
721.103,29,159,-252,,,,,,,,,,,,,,,,
721.113,29,152,13,,,,,,,,,,,,,,,,
721.123,29,158,-425,,,,,,,,,,,,,,,,
721.134,29,149,-38,,,,,,,,,,,,,,,,
721.143,29,162,-405,,,,,,,,,,,,,,,,
721.153,29,150,145,,,,,,,,,,,,,,,,
721.163,29,157,-408,,,,,,,,,,,,,,,,
721.173,29,150,87,,,,,,,,,,,,,,,,
721.183,29,160,-330,,,,,,,,,,,,,,,,
721.193,29,149,76,,,,,,,,,,,,,,,,
721.203,29,162,-236,,,,,,,,,,,,,,,,
721.213,29,151,132,,,,,,,,,,,,,,,,
721.223,29,155,-399,,,,,,,,,,,,,,,,
721.234,29,151,70,,,,,,,,,,,,,,,,
721.243,29,157,-380,,,,,,,,,,,,,,,,
721.253,29,149,21,,,,,,,,,,,,,,,,
721.263,29,162,-360,,,,,,,,,,,,,,,,
721.273,29,156,265,,,,,,,,,,,,,,,,
721.283,29,162,-332,,,,,,,,,,,,,,,,
721.293,29,154,-32,,,,,,,,,,,,,,,,
721.303,29,158,-247,,,,,,,,,,,,,,,,
721.313,29,149,168,,,,,,,,,,,,,,,,
721.323,29,159,-297,,,,,,,,,,,,,,,,
721.333,29,150,272,,,,,,,,,,,,,,,,
721.343,29,159,-307,,,,,,,,,,,,,,,,
721.353,29,150,-92,,,,,,,,,,,,,,,,
721.363,29,156,-149,,,,,,,,,,,,,,,,
721.373,29,149,26,,,,,,,,,,,,,,,,
721.383,29,161,-193,,,,,,,,,,,,,,,,
721.394,29,161,315,,,,,,,,,,,,,,,,
721.403,29,183,151,,,,,,,,,,,,,,,,
721.413,29,180,310,,,,,,,,,,,,,,,,
721.423,29,174,112,,,,,,,,,,,,,,,,
721.434,29,150,83,,,,,,,,,,,,,,,,
721.443,29,154,-287,,,,,,,,,,,,,,,,
721.453,29,149,108,,,,,,,,,,,,,,,,
721.464,29,161,-135,,,,,,,,,,,,,,,,
721.474,29,150,121,,,,,,,,,,,,,,,,
721.483,29,162,-150,,,,,,,,,,,,,,,,
721.493,29,153,-52,,,,,,,,,,,,,,,,
721.503,29,161,-213,,,,,,,,,,,,,,,,
721.513,29,150,215,,,,,,,,,,,,,,,,
721.523,29,161,166,,,,,,,,,,,,,,,,
721.533,29,154,1561,,,,,,,,,,,,,,,,
721.543,29,164,2127,,,,,,,,,,,,,,,,
721.553,29,153,955,,,,,,,,,,,,,,,,
721.563,29,167,-103,,,,,,,,,,,,,,,,
721.573,29,156,-440,,,,,,,,,,,,,,,,
721.583,29,165,-139,,,,,,,,,,,,,,,,
721.593,29,162,-265,,,,,,,,,,,,,,,,
721.603,29,169,-185,,,,,,,,,,,,,,,,
721.614,29,165,-69,,,,,,,,,,,,,,,,
721.624,29,175,-118,,,,,,,,,,,,,,,,
721.634,29,169,-148,,,,,,,,,,,,,,,,
721.643,29,176,51,,,,,,,,,,,,,,,,
721.653,29,170,-124,,,,,,,,,,,,,,,,
721.663,29,176,-118,,,,,,,,,,,,,,,,
721.674,29,159,136,,,,,,,,,,,,,,,,
721.683,29,168,-107,,,,,,,,,,,,,,,,
721.693,29,155,169,,,,,,,,,,,,,,,,
721.703,29,161,188,,,,,,,,,,,,,,,,
721.713,29,151,119,,,,,,,,,,,,,,,,
721.723,29,160,266,,,,,,,,,,,,,,,,
721.733,29,151,455,,,,,,,,,,,,,,,,
721.743,29,160,501,,,,,,,,,,,,,,,,
721.753,29,153,714,,,,,,,,,,,,,,,,
721.763,29,158,757,,,,,,,,,,,,,,,,
721.773,29,150,668,,,,,,,,,,,,,,,,
721.783,29,160,676,,,,,,,,,,,,,,,,
721.794,29,150,661,,,,,,,,,,,,,,,,
721.803,29,161,152,,,,,,,,,,,,,,,,
721.813,29,150,171,,,,,,,,,,,,,,,,
721.823,29,162,-104,,,,,,,,,,,,,,,,
721.834,29,150,-421,,,,,,,,,,,,,,,,
721.843,29,157,-388,,,,,,,,,,,,,,,,
721.853,29,151,-405,,,,,,,,,,,,,,,,
721.863,29,160,-367,,,,,,,,,,,,,,,,
721.873,29,153,-376,,,,,,,,,,,,,,,,
721.883,29,159,-299,,,,,,,,,,,,,,,,
721.893,29,149,-404,,,,,,,,,,,,,,,,
721.903,29,158,-356,,,,,,,,,,,,,,,,
721.913,29,149,-298,,,,,,,,,,,,,,,,
721.923,29,161,-190,,,,,,,,,,,,,,,,
721.933,29,151,-328,,,,,,,,,,,,,,,,
721.944,29,160,-252,,,,,,,,,,,,,,,,
721.953,29,152,-137,,,,,,,,,,,,,,,,
721.963,29,160,-27,,,,,,,,,,,,,,,,
721.973,29,151,-426,,,,,,,,,,,,,,,,
721.983,29,158,-233,,,,,,,,,,,,,,,,
721.994,29,150,-136,,,,,,,,,,,,,,,,
722.003,29,157,-155,,,,,,,,,,,,,,,,
722.013,29,152,-142,,,,,,,,,,,,,,,,
722.023,29,159,-226,,,,,,,,,,,,,,,,
722.033,29,150,-51,,,,,,,,,,,,,,,,
722.043,29,161,-296,,,,,,,,,,,,,,,,
722.053,29,151,-45,,,,,,,,,,,,,,,,
722.063,29,159,-139,,,,,,,,,,,,,,,,
722.073,29,152,-129,,,,,,,,,,,,,,,,
722.083,29,158,-278,,,,,,,,,,,,,,,,
722.093,29,150,129,,,,,,,,,,,,,,,,
722.103,29,159,-181,,,,,,,,,,,,,,,,
722.113,29,154,-61,,,,,,,,,,,,,,,,
722.123,29,162,-357,,,,,,,,,,,,,,,,
722.133,29,155,-33,,,,,,,,,,,,,,,,
722.143,29,162,-105,,,,,,,,,,,,,,,,
722.153,29,152,-92,,,,,,,,,,,,,,,,
722.164,29,159,191,,,,,,,,,,,,,,,,
722.174,29,149,-395,,,,,,,,,,,,,,,,
722.184,29,161,139,,,,,,,,,,,,,,,,
722.195,29,150,-312,,,,,,,,,,,,,,,,
722.204,29,159,9,,,,,,,,,,,,,,,,
722.214,29,148,-263,,,,,,,,,,,,,,,,
722.224,29,159,133,,,,,,,,,,,,,,,,
722.234,29,149,-356,,,,,,,,,,,,,,,,
722.244,29,165,151,,,,,,,,,,,,,,,,
722.254,29,180,-150,,,,,,,,,,,,,,,,
722.264,29,190,369,,,,,,,,,,,,,,,,
722.274,29,158,-127,,,,,,,,,,,,,,,,
722.284,29,159,277,,,,,,,,,,,,,,,,
722.294,29,148,-360,,,,,,,,,,,,,,,,
722.304,29,158,-156,,,,,,,,,,,,,,,,
722.314,29,151,-84,,,,,,,,,,,,,,,,
722.324,29,160,-207,,,,,,,,,,,,,,,,
722.334,29,151,8,,,,,,,,,,,,,,,,
722.344,29,160,-241,,,,,,,,,,,,,,,,
722.354,29,155,-87,,,,,,,,,,,,,,,,
722.364,29,158,-66,,,,,,,,,,,,,,,,
722.374,29,151,193,,,,,,,,,,,,,,,,
722.384,29,161,919,,,,,,,,,,,,,,,,
722.394,29,152,2263,,,,,,,,,,,,,,,,
722.404,29,162,836,,,,,,,,,,,,,,,,
722.414,29,155,-76,,,,,,,,,,,,,,,,
722.424,29,167,-626,,,,,,,,,,,,,,,,
722.434,29,159,-269,,,,,,,,,,,,,,,,
722.444,29,170,-369,,,,,,,,,,,,,,,,
722.454,29,162,65,,,,,,,,,,,,,,,,
722.464,29,170,-16,,,,,,,,,,,,,,,,
722.474,29,169,-311,,,,,,,,,,,,,,,,
722.484,29,175,-164,,,,,,,,,,,,,,,,
722.494,29,169,-29,,,,,,,,,,,,,,,,
722.504,29,176,-55,,,,,,,,,,,,,,,,
722.514,29,164,-25,,,,,,,,,,,,,,,,
722.524,29,169,84,,,,,,,,,,,,,,,,
722.534,29,154,94,,,,,,,,,,,,,,,,
722.544,29,161,8,,,,,,,,,,,,,,,,
722.554,29,157,312,,,,,,,,,,,,,,,,
722.564,29,159,256,,,,,,,,,,,,,,,,
722.575,29,153,393,,,,,,,,,,,,,,,,
722.584,29,160,374,,,,,,,,,,,,,,,,
722.595,29,150,739,,,,,,,,,,,,,,,,
722.604,29,162,486,,,,,,,,,,,,,,,,
722.614,29,152,749,,,,,,,,,,,,,,,,
722.624,29,158,675,,,,,,,,,,,,,,,,
722.634,29,151,792,,,,,,,,,,,,,,,,
722.644,29,162,406,,,,,,,,,,,,,,,,
722.654,29,152,400,,,,,,,,,,,,,,,,
722.664,29,161,-58,,,,,,,,,,,,,,,,
722.674,29,152,-163,,,,,,,,,,,,,,,,
722.684,29,161,-230,,,,,,,,,,,,,,,,
722.694,29,149,-336,,,,,,,,,,,,,,,,
722.704,29,163,-463,,,,,,,,,,,,,,,,
722.714,29,151,-100,,,,,,,,,,,,,,,,
722.724,29,157,-600,,,,,,,,,,,,,,,,
722.734,29,153,-145,,,,,,,,,,,,,,,,
722.745,29,159,-414,,,,,,,,,,,,,,,,
722.754,29,153,-399,,,,,,,,,,,,,,,,
722.764,29,159,-474,,,,,,,,,,,,,,,,
722.774,29,151,48,,,,,,,,,,,,,,,,
722.784,29,159,-371,,,,,,,,,,,,,,,,
722.794,29,154,-43,,,,,,,,,,,,,,,,
722.804,29,159,-348,,,,,,,,,,,,,,,,
722.814,29,150,-58,,,,,,,,,,,,,,,,
722.824,29,160,-510,,,,,,,,,,,,,,,,
722.834,29,150,63,,,,,,,,,,,,,,,,
722.844,29,158,-343,,,,,,,,,,,,,,,,
722.854,29,152,-173,,,,,,,,,,,,,,,,
722.864,29,161,-248,,,,,,,,,,,,,,,,
722.875,29,153,-77,,,,,,,,,,,,,,,,
722.884,29,159,-238,,,,,,,,,,,,,,,,
722.894,29,152,-112,,,,,,,,,,,,,,,,
722.904,29,158,-328,,,,,,,,,,,,,,,,
722.914,29,153,46,,,,,,,,,,,,,,,,
722.924,29,159,-143,,,,,,,,,,,,,,,,
722.934,29,151,-101,,,,,,,,,,,,,,,,
722.944,29,162,-344,,,,,,,,,,,,,,,,
722.954,29,157,-162,,,,,,,,,,,,,,,,
722.964,29,163,-305,,,,,,,,,,,,,,,,
722.974,29,152,-275,,,,,,,,,,,,,,,,
722.984,29,160,-187,,,,,,,,,,,,,,,,
722.995,29,151,13,,,,,,,,,,,,,,,,
723.004,29,159,-129,,,,,,,,,,,,,,,,
723.015,29,151,-44,,,,,,,,,,,,,,,,
723.024,29,159,-198,,,,,,,,,,,,,,,,
723.034,29,154,124,,,,,,,,,,,,,,,,
723.044,29,161,-155,,,,,,,,,,,,,,,,
723.054,29,150,-51,,,,,,,,,,,,,,,,
723.064,29,165,-239,,,,,,,,,,,,,,,,
723.074,29,162,218,,,,,,,,,,,,,,,,
723.084,29,194,73,,,,,,,,,,,,,,,,
723.094,29,169,159,,,,,,,,,,,,,,,,
723.104,0,159,133,,,,,,,,,,,,,,,,
723.114,0,148,-74,,,,,,,,,,,,,,,,
723.124,0,158,-64,,,,,,,,,,,,,,,,
723.134,0,150,-65,,,,,,,,,,,,,,,,
723.145,0,162,-67,,,,,,,,,,,,,,,,
723.154,0,153,26,,,,,,,,,,,,,,,,
723.164,0,161,61,,,,,,,,,,,,,,,,
723.174,0,155,-72,,,,,,,,,,,,,,,,
723.185,0,160,-117,,,,,,,,,,,,,,,,
723.194,0,155,189,,,,,,,,,,,,,,,,
723.204,0,163,499,,,,,,,,,,,,,,,,
723.215,0,155,1776,,,,,,,,,,,,,,,,
723.224,0,162,1605,,,,,,,,,,,,,,,,
723.234,0,155,-13,,,,,,,,,,,,,,,,
723.245,0,167,-351,,,,,,,,,,,,,,,,
723.254,0,159,-285,,,,,,,,,,,,,,,,
723.264,0,171,-228,,,,,,,,,,,,,,,,
723.274,0,162,-63,,,,,,,,,,,,,,,,
723.285,0,173,6,,,,,,,,,,,,,,,,
723.295,0,166,-310,,,,,,,,,,,,,,,,
723.304,0,178,-12,,,,,,,,,,,,,,,,
723.314,0,171,-114,,,,,,,,,,,,,,,,
723.324,0,178,25,,,,,,,,,,,,,,,,
723.334,0,169,-130,,,,,,,,,,,,,,,,
723.345,0,170,144,,,,,,,,,,,,,,,,
723.354,0,158,122,,,,,,,,,,,,,,,,
723.364,0,164,67,,,,,,,,,,,,,,,,
723.374,0,156,330,,,,,,,,,,,,,,,,
723.389,0,162,237,,,,,,,,,,,,,,,,
723.394,0,153,289,,,,,,,,,,,,,,,,
723.404,0,164,465,,,,,,,,,,,,,,,,
723.415,0,150,529,,,,,,,,,,,,,,,,
723.424,0,161,662,,,,,,,,,,,,,,,,
723.434,0,150,699,,,,,,,,,,,,,,,,
723.445,0,160,922,,,,,,,,,,,,,,,,
723.454,0,153,800,,,,,,,,,,,,,,,,
723.464,0,162,745,,,,,,,,,,,,,,,,
723.474,0,150,346,,,,,,,,,,,,,,,,
723.484,0,162,42,,,,,,,,,,,,,,,,
723.494,0,152,-87,,,,,,,,,,,,,,,,
723.504,0,163,-126,,,,,,,,,,,,,,,,
723.514,0,152,-476,,,,,,,,,,,,,,,,
723.524,0,162,-395,,,,,,,,,,,,,,,,
723.534,0,152,-327,,,,,,,,,,,,,,,,
723.544,0,161,-354,,,,,,,,,,,,,,,,
723.554,0,153,-247,,,,,,,,,,,,,,,,
723.564,0,160,-445,,,,,,,,,,,,,,,,
723.574,0,154,-348,,,,,,,,,,,,,,,,
723.584,0,158,-198,,,,,,,,,,,,,,,,
723.594,0,154,-378,,,,,,,,,,,,,,,,
723.604,0,160,-312,,,,,,,,,,,,,,,,
723.614,0,151,-110,,,,,,,,,,,,,,,,
723.624,0,157,-235,,,,,,,,,,,,,,,,
723.634,0,153,-283,,,,,,,,,,,,,,,,
723.644,0,158,-23,,,,,,,,,,,,,,,,
723.654,0,151,-182,,,,,,,,,,,,,,,,
723.664,0,159,-244,,,,,,,,,,,,,,,,
723.674,0,150,-273,,,,,,,,,,,,,,,,
723.685,0,154,-146,,,,,,,,,,,,,,,,
723.694,0,151,-252,,,,,,,,,,,,,,,,
723.704,0,158,-43,,,,,,,,,,,,,,,,
723.714,0,151,-201,,,,,,,,,,,,,,,,
723.724,0,158,-188,,,,,,,,,,,,,,,,
723.734,0,152,-8,,,,,,,,,,,,,,,,
723.744,0,157,-354,,,,,,,,,,,,,,,,
723.754,0,151,-135,,,,,,,,,,,,,,,,
723.764,0,158,-149,,,,,,,,,,,,,,,,
723.775,0,155,-49,,,,,,,,,,,,,,,,
723.785,0,162,-209,,,,,,,,,,,,,,,,
723.795,0,154,0,,,,,,,,,,,,,,,,
723.804,0,156,-80,,,,,,,,,,,,,,,,
723.815,0,152,-272,,,,,,,,,,,,,,,,
723.824,0,156,-301,,,,,,,,,,,,,,,,
723.834,0,150,-38,,,,,,,,,,,,,,,,
723.844,0,156,-145,,,,,,,,,,,,,,,,
723.854,0,150,-38,,,,,,,,,,,,,,,,
723.864,0,154,-220,,,,,,,,,,,,,,,,
723.874,0,149,-77,,,,,,,,,,,,,,,,
723.884,0,158,-199,,,,,,,,,,,,,,,,
723.895,0,151,16,,,,,,,,,,,,,,,,
723.904,0,168,152,,,,,,,,,,,,,,,,
723.914,0,186,254,,,,,,,,,,,,,,,,
723.924,0,182,-209,,,,,,,,,,,,,,,,
723.934,0,154,-82,,,,,,,,,,,,,,,,
723.944,0,157,12,,,,,,,,,,,,,,,,
723.954,0,149,-87,,,,,,,,,,,,,,,,
723.965,0,159,-89,,,,,,,,,,,,,,,,
723.974,0,153,-92,,,,,,,,,,,,,,,,
723.984,0,158,-25,,,,,,,,,,,,,,,,
723.995,0,151,-182,,,,,,,,,,,,,,,,
724.004,0,157,13,,,,,,,,,,,,,,,,
724.014,0,151,43,,,,,,,,,,,,,,,,
724.024,0,159,56,,,,,,,,,,,,,,,,
724.034,0,156,599,,,,,,,,,,,,,,,,
724.045,0,160,1999,,,,,,,,,,,,,,,,
724.054,0,154,1532,,,,,,,,,,,,,,,,
724.064,0,161,453,,,,,,,,,,,,,,,,
724.075,0,156,-217,,,,,,,,,,,,,,,,
724.085,0,164,-413,,,,,,,,,,,,,,,,
724.095,0,163,-77,,,,,,,,,,,,,,,,
724.104,0,169,41,,,,,,,,,,,,,,,,
724.114,0,162,-94,,,,,,,,,,,,,,,,
724.124,0,174,-228,,,,,,,,,,,,,,,,
724.134,0,169,-234,,,,,,,,,,,,,,,,
724.144,0,174,-62,,,,,,,,,,,,,,,,
724.154,0,170,-307,,,,,,,,,,,,,,,,
724.165,0,173,221,,,,,,,,,,,,,,,,
724.175,0,164,-169,,,,,,,,,,,,,,,,
724.186,0,168,370,,,,,,,,,,,,,,,,
724.195,0,157,-179,,,,,,,,,,,,,,,,
724.205,0,159,377,,,,,,,,,,,,,,,,
724.216,0,155,0,,,,,,,,,,,,,,,,
724.225,0,159,445,,,,,,,,,,,,,,,,
724.235,0,153,356,,,,,,,,,,,,,,,,
724.246,0,157,564,,,,,,,,,,,,,,,,
724.255,0,152,305,,,,,,,,,,,,,,,,
724.266,0,157,934,,,,,,,,,,,,,,,,
724.275,0,151,468,,,,,,,,,,,,,,,,
724.285,0,160,971,,,,,,,,,,,,,,,,
724.296,0,152,562,,,,,,,,,,,,,,,,
724.305,0,157,435,,,,,,,,,,,,,,,,
724.316,0,152,279,,,,,,,,,,,,,,,,
724.325,0,159,-211,,,,,,,,,,,,,,,,
724.335,0,150,-267,,,,,,,,,,,,,,,,
724.345,0,162,-319,,,,,,,,,,,,,,,,
724.355,0,150,-221,,,,,,,,,,,,,,,,
724.365,0,160,-177,,,,,,,,,,,,,,,,
724.375,0,155,-332,,,,,,,,,,,,,,,,
724.385,0,155,-216,,,,,,,,,,,,,,,,
724.395,0,151,-289,,,,,,,,,,,,,,,,
724.405,0,160,-324,,,,,,,,,,,,,,,,
724.415,0,152,-125,,,,,,,,,,,,,,,,
724.425,0,159,-76,,,,,,,,,,,,,,,,
724.435,0,151,-252,,,,,,,,,,,,,,,,
724.445,0,160,-41,,,,,,,,,,,,,,,,
724.455,0,152,-113,,,,,,,,,,,,,,,,
