Program Time [s],data 0,data 1
4.32371,5032,3302
4.3637,5018,3306
4.40371,5018,3312
4.44363,5018,3319
4.48473,5020,3311
4.52469,5022,3313
4.56463,5021,3298
4.60548,5025,3298
4.64492,5018,3289
4.6857,5020,3292
4.72575,5007,3297
4.76568,5005,3299
4.80565,4999,3309
4.84768,5004,3307
4.88663,5006,3312
4.92666,5011,3302
4.96663,5020,3302
5.00663,5020,3289
5.04806,5021,3292
5.08763,5007,3290
5.1276,5002,3292
5.16767,4991,3299
5.20864,4997,3301
5.24865,4994,3306
5.28863,4999,3304
5.32861,5006,3302
5.36898,5012,3294
5.40961,5016,3288
5.44967,5001,3280
5.49013,4996,3284
5.52958,4981,3287
5.57059,4977,3287
5.61063,4967,3294
5.65061,4969,3291
5.69064,4972,3292
5.73085,4973,3283
5.77159,4984,3280
5.8119,4984,3276
5.85166,4981,3275
5.89261,4957,3270
5.93261,4954,3277
5.97286,4944,3283
6.01259,4926,3276
6.0528,4898,3268
6.09401,4897,3257
6.13361,4878,3246
6.17358,4827,3218
6.21381,4795,3208
6.25359,4773,3197
6.29462,4753,3198
6.33472,4729,3197
6.3746,4723,3203
6.41459,4705,3204
6.45561,4702,3198
6.49611,4697,3197
6.53559,4699,3185
6.57557,4698,3182
6.61562,4702,3175
6.65658,4704,3182
6.69658,4696,3185
6.73662,4690,3194
6.77655,4670,3190
6.81758,4653,3187
6.85761,4598,3168
6.89757,4497,3122
6.93793,4351,3067
6.97883,4190,2990
7.01861,4021,2929
7.05956,3854,2856
7.09858,3668,2789
7.13853,3478,2709
7.17957,3309,2642
7.21956,3186,2591
7.25956,3086,2549
7.29953,2975,2492
7.34056,2881,2435
7.38055,2783,2391
7.42053,2679,2346
7.46057,2592,2332
7.50159,2487,2296
7.54156,2394,2252
7.58199,2315,2219
7.62153,2274,2219
7.66149,2243,2220
7.70256,2256,2243
7.74249,2301,2298
7.78253,2359,2354
7.82252,2409,2424
7.86261,2406,2436
7.90352,2459,2482
7.94355,2803,2671
7.98354,3742,3663
8.02353,5849,5731
8.06456,13323,11358
8.10453,23302,17388
8.14449,22887,16113
8.18452,20811,13607
8.22551,20852,13203
8.26555,23682,15432
8.30555,27493,19145
8.34554,32672,23459
8.38556,38406,27736
8.42652,41151,29458
8.46655,308952,33202
8.50649,319530,40758
8.54649,590668,47123
8.58752,594320,311602
8.62752,597987,315453
8.66796,603821,323431
8.70751,872734,597439
8.74752,1.15088e+06,1.14396e+06
8.7885,1.69593e+06,1.6979e+06
8.82854,1.713e+06,1.98414e+06
8.86855,1.98204e+06,1.99422e+06
8.9085,1.98355e+06,1.9972e+06
8.94949,1.98411e+06,1.99814e+06
8.9898,1.98606e+06,2.26265e+06
9.02959,1.98865e+06,2.2667e+06
9.06951,1.99201e+06,2.27166e+06
9.10952,1.9963e+06,2.53972e+06
9.15047,2.26101e+06,2.54375e+06
9.19049,2.26239e+06,2.54579e+06
9.23048,2.26335e+06,2.54702e+06
9.27049,2.26378e+06,2.54758e+06
9.31149,2.26476e+06,2.5487e+06
9.35157,2.26537e+06,2.54924e+06
9.39173,2.26579e+06,2.54956e+06
9.43154,2.26605e+06,2.54971e+06
9.47277,2.26623e+06,2.54988e+06
9.51251,2.26638e+06,2.55008e+06
9.55272,2.26536e+06,2.54971e+06
9.59271,2.26482e+06,2.54948e+06
9.63255,2.26487e+06,2.54963e+06
9.67361,2.26488e+06,2.54979e+06
9.71349,2.26478e+06,2.54987e+06
9.75359,2.2649e+06,2.55003e+06
9.79348,2.26496e+06,2.55015e+06
9.83444,2.26496e+06,2.55022e+06
9.87448,2.26486e+06,2.55022e+06
9.91445,2.26469e+06,2.55012e+06
9.95448,2.26472e+06,2.55013e+06
9.99445,2.2649e+06,2.55014e+06
10.0355,2.26504e+06,2.5501e+06
10.0755,2.26508e+06,2.55008e+06
10.1154,2.26508e+06,2.55009e+06
10.1554,2.265e+06,2.55009e+06
10.1965,2.26492e+06,2.55011e+06
10.2365,2.26488e+06,2.55014e+06
10.2764,2.26481e+06,2.55012e+06
10.3165,2.26498e+06,2.55024e+06
10.3565,2.26509e+06,2.55028e+06
10.3974,2.26503e+06,2.55028e+06
10.4375,2.26492e+06,2.55026e+06
10.4775,2.26487e+06,2.55029e+06
10.5174,2.26488e+06,2.55035e+06
10.5584,2.26494e+06,2.55044e+06
10.5984,2.26496e+06,2.55051e+06
10.6385,2.2649e+06,2.55049e+06
10.6784,2.26474e+06,2.55043e+06
10.7194,2.26466e+06,2.55039e+06
10.7595,2.26458e+06,2.55027e+06
10.7995,2.2645e+06,2.55015e+06
10.8398,2.26452e+06,2.55019e+06
10.8794,2.26451e+06,2.55022e+06
10.9204,2.26448e+06,2.55024e+06
10.9604,2.26443e+06,2.55024e+06
11.0004,2.26443e+06,2.55028e+06
11.0404,2.26446e+06,2.55033e+06
11.0818,2.26451e+06,2.55036e+06
11.1217,2.26448e+06,2.55036e+06
11.1615,2.26456e+06,2.55044e+06
11.2014,2.2646e+06,2.5505e+06
11.2414,2.26456e+06,2.55049e+06
11.2824,2.26456e+06,2.55052e+06
11.3224,2.26452e+06,2.55053e+06
11.3624,2.26449e+06,2.55053e+06
11.4025,2.26446e+06,2.55055e+06
11.4434,2.26447e+06,2.55058e+06
11.4834,2.26443e+06,2.55057e+06
11.5235,2.26435e+06,2.55053e+06
11.5634,2.26425e+06,2.55038e+06
11.6034,2.26424e+06,2.55028e+06
11.6444,2.26427e+06,2.5503e+06
11.6845,2.26426e+06,2.55032e+06
11.7244,2.26425e+06,2.55035e+06
11.7645,2.26421e+06,2.55035e+06
11.8054,2.2642e+06,2.55038e+06
11.8454,2.26419e+06,2.55038e+06
11.8854,2.26422e+06,2.5504e+06
11.9254,2.26424e+06,2.55044e+06
11.9664,2.26428e+06,2.55048e+06
12.0064,2.2643e+06,2.55053e+06
12.0464,2.26429e+06,2.55054e+06
12.0874,2.2643e+06,2.55058e+06
12.1267,2.26432e+06,2.55061e+06
12.1674,2.26434e+06,2.55064e+06
12.2074,2.26433e+06,2.55066e+06
12.2479,2.2643e+06,2.55064e+06
12.2873,2.26425e+06,2.55064e+06
12.3283,2.26425e+06,2.55065e+06
12.3685,2.26427e+06,2.55068e+06
12.4084,2.26422e+06,2.55055e+06
12.4484,2.26412e+06,2.55041e+06
12.4894,2.26413e+06,2.55042e+06
12.5304,2.26412e+06,2.55044e+06
12.5697,2.26409e+06,2.55045e+06
12.6094,2.2641e+06,2.55049e+06
12.6493,2.26406e+06,2.5505e+06
12.6903,2.26417e+06,2.55059e+06
12.7307,2.26418e+06,2.5506e+06
12.7703,2.26415e+06,2.55058e+06
12.8104,2.26412e+06,2.55058e+06
12.8504,2.26414e+06,2.55062e+06
12.8914,2.26414e+06,2.55066e+06
12.9314,2.26413e+06,2.55067e+06
12.9716,2.26413e+06,2.55069e+06
13.0114,2.2642e+06,2.55077e+06
13.0524,2.26424e+06,2.55081e+06
13.0924,2.26415e+06,2.55076e+06
13.1323,2.26412e+06,2.55075e+06
13.1737,2.26419e+06,2.55084e+06
13.2125,2.26442e+06,2.55097e+06
13.2533,2.26431e+06,2.55077e+06
13.2934,2.26422e+06,2.55058e+06
13.3334,2.26429e+06,2.55056e+06
13.3733,2.26432e+06,2.55054e+06
13.4144,2.2643e+06,2.55054e+06
13.4543,2.26429e+06,2.55057e+06
13.4943,2.26422e+06,2.55054e+06
13.5344,2.2643e+06,2.55063e+06
13.5743,2.26436e+06,2.55064e+06
13.6158,2.26425e+06,2.55056e+06
13.6554,2.26422e+06,2.55057e+06
13.6953,2.26432e+06,2.55068e+06
13.7354,2.2643e+06,2.55067e+06
13.777,2.26427e+06,2.55069e+06
13.8164,2.2643e+06,2.55075e+06
13.8563,2.26434e+06,2.55079e+06
13.8963,2.2643e+06,2.55079e+06
13.9373,2.2643e+06,2.55081e+06
13.9773,2.26433e+06,2.55085e+06
14.0174,2.26432e+06,2.55086e+06
14.0577,2.26432e+06,2.55089e+06
14.0973,2.26429e+06,2.55084e+06
14.1383,2.26426e+06,2.55072e+06
14.1786,2.26428e+06,2.55066e+06
14.2184,2.26422e+06,2.55062e+06
14.2587,2.26425e+06,2.5507e+06
14.2993,2.26426e+06,2.55074e+06
14.3399,2.26426e+06,2.55078e+06
14.3793,2.26426e+06,2.5508e+06
14.4193,2.26428e+06,2.55083e+06
14.4593,2.26423e+06,2.55078e+06
14.5006,2.2642e+06,2.55079e+06
14.5406,2.26419e+06,2.55082e+06
14.5803,2.2642e+06,2.55087e+06
14.6205,2.26429e+06,2.55097e+06
14.6619,2.26432e+06,2.551e+06
14.7015,2.26431e+06,2.55102e+06
14.7413,2.26433e+06,2.55104e+06
14.7813,2.26436e+06,2.55108e+06
14.8213,2.26434e+06,2.55107e+06
14.8626,2.26433e+06,2.55109e+06
14.9022,2.26437e+06,2.55114e+06
14.9423,2.26438e+06,2.55114e+06
14.9823,2.26428e+06,2.551e+06
15.0233,2.26426e+06,2.5509e+06
15.0633,2.26432e+06,2.55092e+06
15.1043,2.26431e+06,2.55093e+06
15.1433,2.2643e+06,2.55095e+06
15.1833,2.26425e+06,2.55094e+06
15.2243,2.26424e+06,2.55096e+06
15.2643,2.26423e+06,2.55098e+06
15.3042,2.26429e+06,2.55102e+06
15.3443,2.26425e+06,2.55099e+06
15.3852,2.26423e+06,2.55099e+06
15.4253,2.26423e+06,2.55102e+06
15.4653,2.26429e+06,2.55108e+06
15.5053,2.26427e+06,2.55108e+06
15.5453,2.26424e+06,2.55108e+06
15.5862,2.2643e+06,2.55114e+06
15.6262,2.26427e+06,2.55113e+06
15.6662,2.26426e+06,2.55114e+06
15.7062,2.26423e+06,2.55115e+06
15.7472,2.26424e+06,2.55117e+06
15.7873,2.26416e+06,2.55114e+06
15.8272,2.26417e+06,2.55119e+06
15.8677,2.26424e+06,2.55125e+06
15.9072,2.26416e+06,2.55113e+06
15.9482,2.26412e+06,2.551e+06
15.9882,2.26414e+06,2.55097e+06
16.0286,2.26417e+06,2.55101e+06
16.0683,2.26415e+06,2.55102e+06
16.1095,2.26414e+06,2.55104e+06
16.1493,2.26418e+06,2.55109e+06
16.1895,2.2642e+06,2.55111e+06
16.2292,2.26424e+06,2.55114e+06
16.2702,2.26423e+06,2.55112e+06
16.3102,2.26424e+06,2.55114e+06
16.3502,2.26425e+06,2.55116e+06
16.3902,2.26431e+06,2.55122e+06
16.4302,2.26432e+06,2.55123e+06
16.4715,2.26434e+06,2.55126e+06
16.5112,2.26432e+06,2.55126e+06
16.5512,2.26429e+06,2.55126e+06
16.5912,2.26429e+06,2.55127e+06
16.6323,2.26428e+06,2.55128e+06
16.6726,2.26428e+06,2.5513e+06
16.7122,2.26426e+06,2.55129e+06
16.7532,2.26418e+06,2.55126e+06
16.7932,2.26413e+06,2.55125e+06
16.8332,2.26419e+06,2.55133e+06
16.8738,2.26409e+06,2.55119e+06
16.9132,2.26403e+06,2.55106e+06
16.9532,2.26406e+06,2.55104e+06
16.9942,2.2641e+06,2.55107e+06
17.0342,2.26405e+06,2.55107e+06
17.0742,2.26407e+06,2.55111e+06
17.1142,2.26401e+06,2.5511e+06
17.1551,2.264e+06,2.5511e+06
17.1952,2.26401e+06,2.55113e+06
17.2352,2.264e+06,2.55111e+06
17.2752,2.26396e+06,2.5511e+06
17.3162,2.26403e+06,2.55118e+06
17.3562,2.26403e+06,2.5512e+06
17.3962,2.26406e+06,2.55125e+06
17.4362,2.2641e+06,2.55129e+06
17.4762,2.26409e+06,2.55129e+06
17.5171,2.26411e+06,2.55132e+06
17.5582,2.26411e+06,2.55132e+06
17.5972,2.26411e+06,2.55134e+06
17.6372,2.26407e+06,2.55133e+06
17.6782,2.26407e+06,2.55134e+06
17.7181,2.26412e+06,2.5514e+06
17.7582,2.26412e+06,2.55139e+06
17.7981,2.26402e+06,2.55125e+06
17.8391,2.26398e+06,2.55113e+06
17.8792,2.26396e+06,2.55112e+06
17.9194,2.26398e+06,2.55116e+06
17.9591,2.26398e+06,2.55121e+06
17.9991,2.26398e+06,2.55124e+06
18.0411,2.26404e+06,2.55131e+06
18.0801,2.26412e+06,2.55136e+06
18.1201,2.26409e+06,2.55133e+06
18.1602,2.2641e+06,2.55134e+06
18.2011,2.26414e+06,2.55138e+06
18.2411,2.26413e+06,2.55138e+06
18.2812,2.26412e+06,2.55139e+06
18.3211,2.26416e+06,2.55144e+06
18.3622,2.26418e+06,2.55146e+06
18.4021,2.26413e+06,2.55145e+06
18.4421,2.26413e+06,2.55146e+06
18.4822,2.26414e+06,2.55148e+06
18.5221,2.2641e+06,2.55146e+06
18.5631,2.26408e+06,2.55147e+06
18.6032,2.2641e+06,2.5515e+06
18.6441,2.26404e+06,2.55143e+06
18.6835,2.26403e+06,2.55135e+06
18.7245,2.26404e+06,2.55128e+06
18.7641,2.26402e+06,2.55128e+06
18.8041,2.26405e+06,2.55134e+06
18.8446,2.26403e+06,2.55134e+06
18.8852,2.26397e+06,2.55131e+06
18.9251,2.26403e+06,2.55139e+06
18.9652,2.26404e+06,2.55138e+06
19.0051,2.26398e+06,2.55135e+06
19.0454,2.264e+06,2.55137e+06
19.0861,2.26397e+06,2.55137e+06
19.1261,2.26398e+06,2.5514e+06
19.1661,2.26406e+06,2.55149e+06
19.2061,2.26396e+06,2.55142e+06
19.2472,2.26395e+06,2.55145e+06
19.2871,2.26399e+06,2.5515e+06
19.3271,2.26399e+06,2.55151e+06
19.3672,2.26397e+06,2.55151e+06
19.4081,2.264e+06,2.55154e+06
19.4481,2.26393e+06,2.55151e+06
19.4881,2.26395e+06,2.55155e+06
19.5281,2.26402e+06,2.55161e+06
19.5681,2.26391e+06,2.55147e+06
19.6091,2.2639e+06,2.55138e+06
19.649,2.26387e+06,2.5513e+06
19.6891,2.26387e+06,2.55132e+06
19.7291,2.26387e+06,2.55135e+06
19.7701,2.26385e+06,2.55136e+06
19.8101,2.26382e+06,2.55136e+06
19.8502,2.26384e+06,2.5514e+06
19.89,2.26386e+06,2.55142e+06
19.931,2.26381e+06,2.55137e+06
19.971,2.2638e+06,2.55139e+06
20.0111,2.26382e+06,2.55142e+06
20.0511,2.26386e+06,2.55149e+06
20.091,2.26385e+06,2.55149e+06
20.132,2.26383e+06,2.5515e+06
20.172,2.26382e+06,2.55152e+06
20.212,2.26385e+06,2.55156e+06
20.2521,2.26384e+06,2.55156e+06
20.2931,2.26384e+06,2.55158e+06
20.3331,2.26391e+06,2.55165e+06
20.3732,2.26386e+06,2.55162e+06
20.413,2.26386e+06,2.55165e+06
20.453,2.26394e+06,2.55172e+06
20.494,2.26399e+06,2.55175e+06
20.534,2.26391e+06,2.55162e+06
20.574,2.26394e+06,2.55153e+06
20.614,2.26394e+06,2.55145e+06
20.655,2.26394e+06,2.55145e+06
20.695,2.26395e+06,2.55148e+06
20.7351,2.2639e+06,2.55145e+06
20.775,2.26378e+06,2.55139e+06
20.816,2.26381e+06,2.55143e+06
20.8561,2.26378e+06,2.55141e+06
20.8961,2.26372e+06,2.55137e+06
20.936,2.26374e+06,2.5514e+06
20.976,2.26371e+06,2.55141e+06
21.0171,2.26383e+06,2.55152e+06
21.0574,2.26382e+06,2.55152e+06
21.0971,2.26382e+06,2.55154e+06
21.137,2.26381e+06,2.55156e+06
21.178,2.26384e+06,2.55158e+06
21.2181,2.26387e+06,2.55162e+06
21.2581,2.26389e+06,2.55164e+06
21.2983,2.26387e+06,2.55163e+06
21.3383,2.26373e+06,2.55154e+06
21.379,2.26379e+06,2.55162e+06
21.419,2.26376e+06,2.55162e+06
21.4596,2.26372e+06,2.55161e+06
21.4991,2.26372e+06,2.55158e+06
21.5403,2.26371e+06,2.55145e+06
21.58,2.26367e+06,2.55137e+06
21.62,2.26364e+06,2.55136e+06
21.6604,2.26362e+06,2.5514e+06
21.7,2.26367e+06,2.55145e+06
21.741,2.26364e+06,2.55146e+06
21.781,2.26365e+06,2.55147e+06
21.821,2.26367e+06,2.55149e+06
21.8613,2.26365e+06,2.55147e+06
21.9021,2.26364e+06,2.55147e+06
21.942,2.26368e+06,2.55153e+06
21.9834,2.26372e+06,2.55157e+06
22.022,2.2637e+06,2.55156e+06
22.0633,2.26368e+06,2.55155e+06
22.103,2.26362e+06,2.55154e+06
22.143,2.2636e+06,2.55154e+06
22.1832,2.26362e+06,2.55158e+06
22.223,2.26358e+06,2.55156e+06
22.2641,2.26358e+06,2.55159e+06
22.304,2.26355e+06,2.55158e+06
22.344,2.26356e+06,2.55162e+06
22.384,2.26356e+06,2.55163e+06
22.426,2.26352e+06,2.55154e+06
22.465,2.26348e+06,2.55142e+06
22.5049,2.26349e+06,2.55139e+06
22.545,2.2635e+06,2.55142e+06
22.585,2.26349e+06,2.55144e+06
22.626,2.26337e+06,2.55137e+06
22.666,2.2634e+06,2.55144e+06
22.7059,2.26345e+06,2.55148e+06
22.747,2.26344e+06,2.55146e+06
22.7869,2.26351e+06,2.55149e+06
22.827,2.2636e+06,2.5515e+06
22.867,2.26353e+06,2.55139e+06
22.9069,2.26316e+06,2.55109e+06
22.9479,2.2625e+06,2.55052e+06
22.9879,2.26166e+06,2.54966e+06
23.0279,2.26027e+06,2.54819e+06
23.0679,2.25872e+06,2.54649e+06
23.1079,2.25799e+06,2.54534e+06
23.1489,2.25726e+06,2.54408e+06
23.1889,2.25593e+06,2.54191e+06
23.2291,2.25546e+06,2.54068e+06
23.2689,2.25489e+06,2.53948e+06
23.31,2.25225e+06,2.53566e+06
23.35,2.24835e+06,2.53006e+06
23.39,1.98177e+06,2.26116e+06
23.4302,1.97768e+06,2.25524e+06
23.4709,1.97476e+06,2.25087e+06
23.511,1.97288e+06,2.24802e+06
23.551,1.97273e+06,2.24775e+06
23.591,1.97501e+06,2.25091e+06
23.6312,1.9789e+06,2.25612e+06
23.6719,1.98327e+06,2.26201e+06
23.712,1.9867e+06,2.26683e+06
23.7521,1.98876e+06,2.26998e+06
23.7919,1.9902e+06,2.27246e+06
23.833,1.99116e+06,2.27428e+06
23.8729,1.99181e+06,2.27569e+06
23.9129,1.9925e+06,2.53924e+06
23.953,1.99299e+06,2.5402e+06
23.993,1.99326e+06,2.54089e+06
24.034,1.99355e+06,2.54143e+06
24.0745,1.99365e+06,2.54171e+06
24.1144,1.9936e+06,2.54177e+06
24.1539,1.99353e+06,2.5418e+06
24.1949,1.99351e+06,2.54183e+06
24.235,1.99354e+06,2.54193e+06
24.275,1.99358e+06,2.542e+06
24.315,1.99366e+06,2.54208e+06
24.3549,1.99375e+06,2.54211e+06
24.3962,1.99446e+06,2.54272e+06
24.4359,1.99548e+06,2.54365e+06
24.4764,1.99612e+06,2.54421e+06
24.5159,1.99696e+06,2.54496e+06
24.557,1.99756e+06,2.54556e+06
24.5969,2.26059e+06,2.54634e+06
24.637,2.26128e+06,2.54717e+06
24.678,2.26216e+06,2.54786e+06
24.7179,2.26289e+06,2.54852e+06
24.7579,2.2632e+06,2.54914e+06
24.798,2.26372e+06,2.55019e+06
24.838,2.26427e+06,2.55093e+06
24.8782,2.26449e+06,2.55129e+06
24.9189,2.26463e+06,2.55164e+06
24.9589,2.26482e+06,2.55211e+06
24.999,2.26486e+06,2.55221e+06
25.0394,2.2649e+06,2.55209e+06
25.0798,2.2649e+06,2.55183e+06
25.1198,2.26505e+06,2.55156e+06
25.1598,2.26497e+06,2.55109e+06
25.2001,2.26484e+06,2.55081e+06
25.2399,2.26476e+06,2.55066e+06
25.2809,2.26466e+06,2.5504e+06
25.3209,2.26459e+06,2.55016e+06
25.3609,2.26459e+06,2.55012e+06
25.401,2.2646e+06,2.55021e+06
25.4418,2.26465e+06,2.55034e+06
25.4818,2.26466e+06,2.55044e+06
25.5218,2.26468e+06,2.55047e+06
25.5618,2.26467e+06,2.55048e+06
25.6028,2.26468e+06,2.55048e+06
25.6428,2.26469e+06,2.55051e+06
25.6828,2.2647e+06,2.55055e+06
25.7229,2.26472e+06,2.55058e+06
25.7638,2.26472e+06,2.5506e+06
25.8051,2.26474e+06,2.55064e+06
25.8438,2.26474e+06,2.55062e+06
25.8839,2.26474e+06,2.55064e+06
25.9242,2.26474e+06,2.55067e+06
25.9648,2.26475e+06,2.5507e+06
26.0048,2.26474e+06,2.5507e+06
26.0448,2.26475e+06,2.55075e+06
26.0849,2.26474e+06,2.55076e+06
26.1258,2.26474e+06,2.55078e+06
26.1658,2.2647e+06,2.55062e+06
26.2058,2.26463e+06,2.55038e+06
26.2462,2.26461e+06,2.55033e+06
26.2868,2.26462e+06,2.55038e+06
26.3268,2.26464e+06,2.55048e+06
26.3668,2.26465e+06,2.55053e+06
26.4068,2.26466e+06,2.55058e+06
26.4469,2.26465e+06,2.55056e+06
26.4878,2.26464e+06,2.55052e+06
26.5278,2.26463e+06,2.55051e+06
26.5678,2.26464e+06,2.55054e+06
26.6078,2.26464e+06,2.55058e+06
26.6488,2.26465e+06,2.55061e+06
26.6888,2.26465e+06,2.55064e+06
26.7288,2.26466e+06,2.55067e+06
26.769,2.26466e+06,2.55069e+06
26.8101,2.26466e+06,2.55072e+06
26.8498,2.26465e+06,2.55076e+06
26.8898,2.26465e+06,2.55078e+06
26.9298,2.26465e+06,2.5508e+06
26.9698,2.26464e+06,2.55083e+06
27.0108,2.26464e+06,2.55086e+06
27.0508,2.2646e+06,2.55073e+06
27.0908,2.26453e+06,2.55049e+06
27.1309,2.2645e+06,2.55038e+06
27.1721,2.26452e+06,2.55042e+06
27.2118,2.26452e+06,2.55051e+06
27.2522,2.26454e+06,2.55056e+06
27.2918,2.26454e+06,2.55062e+06
27.3328,2.26456e+06,2.55068e+06
27.3727,2.26459e+06,2.55073e+06
27.4128,2.26466e+06,2.55074e+06
27.4528,2.26472e+06,2.55086e+06
27.4934,2.26476e+06,2.55098e+06
27.5338,2.26479e+06,2.55106e+06
27.5738,2.26479e+06,2.55109e+06
27.6138,2.2648e+06,2.55114e+06
27.6537,2.26479e+06,2.55116e+06
27.6948,2.26478e+06,2.55115e+06
27.7347,2.26475e+06,2.55111e+06
27.7758,2.26472e+06,2.55107e+06
27.8147,2.26469e+06,2.55108e+06
27.8549,2.26465e+06,2.55105e+06
27.8957,2.26463e+06,2.55103e+06
27.9358,2.26463e+06,2.55102e+06
27.9758,2.26461e+06,2.55095e+06
28.0158,2.26456e+06,2.55079e+06
28.0567,2.26452e+06,2.55068e+06
28.0968,2.2645e+06,2.55069e+06
28.1367,2.26452e+06,2.55078e+06
28.1768,2.26455e+06,2.55088e+06
28.218,2.26456e+06,2.55087e+06
28.2577,2.26452e+06,2.55081e+06
28.2977,2.26442e+06,2.55068e+06
28.3381,2.26435e+06,2.55063e+06
28.3777,2.26432e+06,2.55064e+06
28.4187,2.26434e+06,2.5507e+06
28.4587,2.26437e+06,2.55079e+06
28.4987,2.26443e+06,2.55089e+06
28.5387,2.26443e+06,2.55093e+06
28.5798,2.26442e+06,2.55093e+06
28.6197,2.26439e+06,2.55093e+06
28.6602,2.26438e+06,2.55092e+06
28.6997,2.26438e+06,2.55094e+06
28.7397,2.2644e+06,2.55096e+06
28.7808,2.26445e+06,2.55103e+06
28.8207,2.26444e+06,2.55103e+06
28.8607,2.26445e+06,2.55101e+06
28.9009,2.26439e+06,2.55084e+06
28.9417,2.26437e+06,2.55063e+06
28.9817,2.26436e+06,2.55056e+06
29.0217,2.26438e+06,2.5506e+06
29.0617,2.2644e+06,2.55065e+06
29.1027,2.26441e+06,2.5507e+06
29.1427,2.2644e+06,2.55074e+06
29.1827,2.26439e+06,2.55074e+06
29.2227,2.26438e+06,2.55072e+06
29.2632,2.26435e+06,2.55067e+06
29.3037,2.26431e+06,2.5507e+06
29.3436,2.26429e+06,2.5507e+06
29.3837,2.26429e+06,2.5507e+06
29.4237,2.26427e+06,2.5507e+06
29.4647,2.26428e+06,2.55071e+06
29.5047,2.26425e+06,2.55072e+06
29.545,2.26426e+06,2.55074e+06
29.5847,2.26427e+06,2.55075e+06
29.6248,2.26428e+06,2.55076e+06
29.6657,2.26424e+06,2.55076e+06
29.7057,2.26424e+06,2.55077e+06
29.7457,2.26421e+06,2.5507e+06
29.7857,2.26416e+06,2.55057e+06
29.8267,2.26415e+06,2.55046e+06
29.8667,2.26415e+06,2.55049e+06
29.9067,2.26415e+06,2.55054e+06
29.9467,2.26416e+06,2.55059e+06
29.9877,2.26416e+06,2.55061e+06
30.0279,2.26414e+06,2.55063e+06
30.0676,2.26415e+06,2.55062e+06
30.1081,2.26414e+06,2.55062e+06
30.1477,2.26412e+06,2.55063e+06
30.1886,2.26413e+06,2.55066e+06
30.2286,2.26412e+06,2.55067e+06
30.2686,2.26412e+06,2.5507e+06
30.3087,2.26412e+06,2.55072e+06
30.3498,2.26412e+06,2.55075e+06
30.3897,2.26412e+06,2.55076e+06
30.4301,2.26413e+06,2.55078e+06
30.4696,2.26412e+06,2.55079e+06
30.511,2.26412e+06,2.55079e+06
30.5507,2.26413e+06,2.55081e+06
30.5906,2.26413e+06,2.55083e+06
30.6306,2.26414e+06,2.55084e+06
30.6706,2.2641e+06,2.55072e+06
30.7123,2.26405e+06,2.55058e+06
30.7516,2.26404e+06,2.55048e+06
30.792,2.26406e+06,2.55051e+06
30.8316,2.26406e+06,2.55056e+06
30.8726,2.26409e+06,2.55061e+06
30.9126,2.26409e+06,2.55065e+06
30.9526,2.2641e+06,2.55066e+06
30.993,2.2641e+06,2.55066e+06
31.0338,2.2641e+06,2.55066e+06
31.0736,2.26413e+06,2.55069e+06
31.1136,2.26414e+06,2.55071e+06
31.1536,2.26412e+06,2.55074e+06
31.1943,2.26414e+06,2.55076e+06
31.2346,2.26416e+06,2.5508e+06
31.2746,2.26414e+06,2.5508e+06
31.3146,2.26416e+06,2.55083e+06
31.3546,2.26415e+06,2.55084e+06
31.3968,2.26415e+06,2.55085e+06
31.4368,2.26415e+06,2.55087e+06
31.4759,2.26415e+06,2.55087e+06
31.5156,2.26413e+06,2.5509e+06
31.5569,2.26414e+06,2.55091e+06
31.5971,2.26412e+06,2.55089e+06
31.6366,2.26406e+06,2.55072e+06
31.6766,2.26404e+06,2.55056e+06
31.7166,2.26404e+06,2.55052e+06
31.7577,2.26406e+06,2.55058e+06
31.7976,2.26407e+06,2.55063e+06
31.8376,2.26408e+06,2.55067e+06
31.8777,2.26409e+06,2.55069e+06
31.9186,2.26413e+06,2.5507e+06
31.9586,2.26413e+06,2.55068e+06
31.9985,2.26411e+06,2.55067e+06
32.0386,2.2641e+06,2.55071e+06
32.0786,2.2641e+06,2.55075e+06
32.1197,2.2641e+06,2.5508e+06
32.1596,2.26411e+06,2.55084e+06
32.1996,2.26412e+06,2.55087e+06
32.2405,2.26412e+06,2.5509e+06
32.2805,2.26411e+06,2.55093e+06
32.3205,2.26411e+06,2.55094e+06
32.3605,2.2641e+06,2.55096e+06
32.4006,2.2641e+06,2.55099e+06
32.4419,2.26412e+06,2.55102e+06
32.482,2.2641e+06,2.55105e+06
32.5215,2.26408e+06,2.55106e+06
32.5619,2.26408e+06,2.55102e+06
32.6016,2.26403e+06,2.55084e+06
32.6426,2.264e+06,2.5507e+06
32.6825,2.26401e+06,2.55069e+06
32.7225,2.26402e+06,2.55076e+06
32.7625,2.26402e+06,2.55082e+06
32.8035,2.26403e+06,2.55088e+06
32.8435,2.26401e+06,2.55088e+06
32.8835,2.26401e+06,2.55088e+06
32.9237,2.26401e+06,2.55088e+06
32.9645,2.26402e+06,2.55089e+06
33.0045,2.26402e+06,2.55092e+06
33.0445,2.26401e+06,2.55094e+06
33.0845,2.26401e+06,2.55097e+06
33.1245,2.26401e+06,2.55098e+06
33.1659,2.26402e+06,2.551e+06
33.2056,2.26401e+06,2.55101e+06
33.2455,2.264e+06,2.55102e+06
33.2855,2.26399e+06,2.55102e+06
33.3265,2.26398e+06,2.55103e+06
33.3665,2.26397e+06,2.55103e+06
33.4065,2.26396e+06,2.55102e+06
33.4465,2.26391e+06,2.55091e+06
33.4875,2.26388e+06,2.55077e+06
33.5276,2.26387e+06,2.55072e+06
33.5675,2.26386e+06,2.55076e+06
33.6075,2.26387e+06,2.55082e+06
33.6485,2.26389e+06,2.55085e+06
33.6885,2.2639e+06,2.55088e+06
33.7285,2.2639e+06,2.55088e+06
33.7685,2.2639e+06,2.55088e+06
33.8085,2.2639e+06,2.55088e+06
33.8495,2.26391e+06,2.55091e+06
33.8896,2.26389e+06,2.55092e+06
33.9295,2.26388e+06,2.55094e+06
33.9695,2.26389e+06,2.55096e+06
34.0105,2.2639e+06,2.55098e+06
34.0505,2.26388e+06,2.55098e+06
34.0905,2.26389e+06,2.551e+06
34.1304,2.26387e+06,2.551e+06
34.1715,2.26388e+06,2.55102e+06
34.2115,2.26386e+06,2.55102e+06
34.2515,2.26387e+06,2.55103e+06
34.2915,2.26386e+06,2.55105e+06
34.3325,2.26386e+06,2.55104e+06
34.3725,2.2638e+06,2.55093e+06
34.4128,2.26377e+06,2.55077e+06
34.4524,2.26376e+06,2.5507e+06
34.4925,2.26376e+06,2.55073e+06
34.5335,2.26376e+06,2.55079e+06
34.5735,2.26377e+06,2.55081e+06
34.6139,2.26378e+06,2.55084e+06
34.6534,2.26376e+06,2.55084e+06
34.6944,2.26376e+06,2.55085e+06
34.7344,2.26376e+06,2.55084e+06
34.7744,2.26375e+06,2.55086e+06
34.8144,2.26376e+06,2.55088e+06
34.8559,2.26377e+06,2.5509e+06
34.8959,2.26376e+06,2.55092e+06
34.9355,2.26376e+06,2.55093e+06
34.9758,2.26375e+06,2.55095e+06
35.0165,2.26376e+06,2.55095e+06
35.0565,2.26376e+06,2.55097e+06
35.0965,2.26375e+06,2.55098e+06
35.1365,2.26376e+06,2.551e+06
35.1765,2.26374e+06,2.55099e+06
35.2174,2.26375e+06,2.55103e+06
35.2575,2.26374e+06,2.55104e+06
35.2975,2.26375e+06,2.55105e+06
35.3374,2.26368e+06,2.55094e+06
35.3784,2.26367e+06,2.55081e+06
35.4184,2.26364e+06,2.55074e+06
35.4584,2.26368e+06,2.55082e+06
35.4985,2.26368e+06,2.55086e+06
35.5394,2.26369e+06,2.5509e+06
35.5799,2.2637e+06,2.55094e+06
35.6198,2.26368e+06,2.55094e+06
35.6595,2.26368e+06,2.55094e+06
35.7005,2.2637e+06,2.55095e+06
35.7405,2.2637e+06,2.55096e+06
35.7804,2.26367e+06,2.55097e+06
35.8204,2.26368e+06,2.55101e+06
35.8618,2.26367e+06,2.55101e+06
35.9014,2.26367e+06,2.55104e+06
35.9418,2.26366e+06,2.55104e+06
35.9814,2.26365e+06,2.55106e+06
36.0215,2.26367e+06,2.55107e+06
36.0625,2.26366e+06,2.55108e+06
36.103,2.26362e+06,2.55111e+06
36.1424,2.26365e+06,2.55112e+06
36.1824,2.26365e+06,2.55114e+06
36.2234,2.26366e+06,2.55116e+06
36.2634,2.26366e+06,2.55118e+06
36.3034,2.26363e+06,2.55112e+06
36.3434,2.26361e+06,2.551e+06
36.3844,2.26361e+06,2.55089e+06
36.4244,2.26359e+06,2.55093e+06
36.4646,2.26359e+06,2.55097e+06
36.5044,2.26361e+06,2.55102e+06
36.5444,2.26361e+06,2.55104e+06
36.5854,2.26362e+06,2.55105e+06
36.6254,2.26359e+06,2.55103e+06
36.6654,2.2636e+06,2.55103e+06
36.7054,2.26358e+06,2.55102e+06
36.7474,2.26359e+06,2.55104e+06
36.7864,2.26356e+06,2.55106e+06
36.8264,2.2636e+06,2.5511e+06
36.8664,2.26358e+06,2.5511e+06
36.9074,2.26358e+06,2.55112e+06
36.9474,2.26358e+06,2.55114e+06
36.9874,2.26357e+06,2.55113e+06
37.0274,2.26356e+06,2.55114e+06
37.0684,2.26357e+06,2.55114e+06
37.1084,2.26357e+06,2.55117e+06
37.1485,2.26357e+06,2.55117e+06
37.1884,2.26355e+06,2.55116e+06
37.2284,2.2635e+06,2.55105e+06
37.2694,2.26347e+06,2.55094e+06
37.3094,2.26346e+06,2.5509e+06
37.3494,2.26346e+06,2.55095e+06
37.3894,2.26347e+06,2.55098e+06
37.4304,2.26348e+06,2.55102e+06
37.4707,2.26347e+06,2.55102e+06
37.5103,2.26347e+06,2.55103e+06
37.5503,2.26347e+06,2.55102e+06
37.5913,2.26347e+06,2.55102e+06
37.6313,2.26346e+06,2.55104e+06
37.6713,2.26346e+06,2.55105e+06
37.7113,2.26347e+06,2.55109e+06
37.7523,2.26347e+06,2.55109e+06
37.7924,2.26347e+06,2.55112e+06
37.8324,2.26346e+06,2.55111e+06
37.8734,2.26346e+06,2.55113e+06
37.9127,2.26345e+06,2.55113e+06
37.9533,2.26345e+06,2.55114e+06
37.9934,2.26342e+06,2.55113e+06
38.0334,2.26345e+06,2.55117e+06
38.0733,2.26344e+06,2.55118e+06
38.1147,2.26343e+06,2.55118e+06
38.1543,2.2634e+06,2.55116e+06
38.1943,2.26338e+06,2.55103e+06
38.2343,2.26334e+06,2.55094e+06
38.2753,2.26337e+06,2.55095e+06
38.3153,2.26335e+06,2.55098e+06
38.3553,2.26337e+06,2.55101e+06
38.3953,2.26336e+06,2.55103e+06
38.4353,2.26336e+06,2.55105e+06
38.4763,2.26336e+06,2.55106e+06
38.5166,2.26335e+06,2.55105e+06
38.5568,2.26335e+06,2.55106e+06
38.5967,2.26336e+06,2.55107e+06
38.6373,2.26336e+06,2.5511e+06
38.6777,2.26336e+06,2.55111e+06
38.7174,2.26336e+06,2.55114e+06
38.7573,2.26335e+06,2.55116e+06
38.7983,2.26336e+06,2.55117e+06
38.8383,2.26336e+06,2.55119e+06
38.8783,2.26336e+06,2.55119e+06
38.9183,2.26336e+06,2.55121e+06
38.9593,2.26336e+06,2.55121e+06
38.9994,2.26336e+06,2.55124e+06
39.0393,2.26336e+06,2.55125e+06
39.0798,2.26336e+06,2.55127e+06
39.1196,2.26335e+06,2.55125e+06
39.1603,2.26332e+06,2.55114e+06
39.2004,2.26329e+06,2.55102e+06
39.2403,2.26329e+06,2.55102e+06
39.2803,2.26329e+06,2.55107e+06
39.3213,2.26331e+06,2.5511e+06
39.3613,2.2633e+06,2.55114e+06
39.4012,2.26331e+06,2.55115e+06
39.4413,2.2633e+06,2.55114e+06
39.4813,2.2633e+06,2.55114e+06
39.5223,2.2633e+06,2.55114e+06
39.5623,2.26328e+06,2.55115e+06
39.6037,2.26329e+06,2.55118e+06
39.6423,2.26328e+06,2.55118e+06
39.6837,2.2633e+06,2.55122e+06
39.7233,2.2633e+06,2.55123e+06
39.7634,2.2633e+06,2.55124e+06
39.8033,2.26329e+06,2.55124e+06
39.8443,2.26328e+06,2.55125e+06
39.8843,2.26327e+06,2.55126e+06
39.9243,2.26327e+06,2.55128e+06
39.9643,2.26327e+06,2.5513e+06
40.0043,2.26326e+06,2.55129e+06
40.0452,2.26324e+06,2.55123e+06
40.0852,2.2632e+06,2.55109e+06
40.1252,2.26319e+06,2.55106e+06
40.1653,2.26319e+06,2.55108e+06
40.2062,2.2632e+06,2.55113e+06
40.2465,2.26319e+06,2.55115e+06
40.2863,2.26321e+06,2.55118e+06
40.3262,2.26319e+06,2.55118e+06
40.3682,2.26319e+06,2.55116e+06
40.4072,2.26318e+06,2.55116e+06
40.4472,2.26316e+06,2.55116e+06
40.4872,2.26317e+06,2.55118e+06
40.5272,2.26317e+06,2.55118e+06
40.5682,2.26316e+06,2.55121e+06
40.6082,2.26316e+06,2.55121e+06
40.6483,2.26318e+06,2.55123e+06
40.6882,2.26317e+06,2.55124e+06
40.7298,2.26317e+06,2.55124e+06
40.7692,2.26317e+06,2.55125e+06
40.8093,2.26317e+06,2.55125e+06
40.8493,2.26317e+06,2.55127e+06
40.8902,2.26316e+06,2.55126e+06
40.9302,2.26315e+06,2.55126e+06
40.9707,2.26312e+06,2.55115e+06
41.0102,2.26308e+06,2.55104e+06
41.0502,2.26307e+06,2.55102e+06
41.0912,2.26308e+06,2.55106e+06
41.1312,2.26307e+06,2.55108e+06
41.1712,2.26308e+06,2.55111e+06
41.2116,2.26308e+06,2.55112e+06
41.2522,2.26308e+06,2.55113e+06
41.2922,2.26307e+06,2.55113e+06
41.3332,2.26309e+06,2.55114e+06
41.3722,2.2631e+06,2.55114e+06
41.4132,2.26308e+06,2.55116e+06
41.4532,2.26309e+06,2.5512e+06
41.4932,2.2631e+06,2.5512e+06
41.5332,2.26309e+06,2.55123e+06
41.5732,2.26309e+06,2.55123e+06
41.6142,2.26308e+06,2.55125e+06
41.6546,2.26307e+06,2.55126e+06
41.6942,2.26308e+06,2.55127e+06
41.7342,2.26308e+06,2.55128e+06
41.7752,2.26308e+06,2.55129e+06
41.8153,2.26308e+06,2.55131e+06
41.8552,2.26307e+06,2.5513e+06
41.8952,2.26305e+06,2.55126e+06
41.9362,2.26302e+06,2.55111e+06
41.9762,2.26301e+06,2.55107e+06
42.0161,2.26301e+06,2.55108e+06
42.0569,2.26303e+06,2.55114e+06
42.0962,2.26303e+06,2.55116e+06
42.1372,2.26305e+06,2.5512e+06
42.1772,2.26304e+06,2.5512e+06
42.2172,2.26305e+06,2.55121e+06
42.2574,2.26304e+06,2.5512e+06
42.2982,2.26305e+06,2.55121e+06
42.3388,2.26304e+06,2.55123e+06
42.3782,2.26304e+06,2.55124e+06
42.4182,2.26304e+06,2.55126e+06
42.4582,2.26305e+06,2.55127e+06
42.4992,2.26305e+06,2.55129e+06
42.5395,2.26305e+06,2.5513e+06
42.5791,2.26305e+06,2.55131e+06
42.6191,2.26304e+06,2.55131e+06
42.6601,2.26304e+06,2.55132e+06
42.7004,2.26303e+06,2.55132e+06
42.7401,2.26302e+06,2.55132e+06
42.7802,2.263e+06,2.5513e+06
42.8214,2.26296e+06,2.55116e+06
42.8612,2.26294e+06,2.55109e+06
42.9011,2.26295e+06,2.55111e+06
42.9411,2.26294e+06,2.55115e+06
42.9822,2.26295e+06,2.55117e+06
43.0221,2.26296e+06,2.5512e+06
43.0621,2.26295e+06,2.55119e+06
43.1021,2.26294e+06,2.5512e+06
43.1421,2.26293e+06,2.55118e+06
43.1831,2.26294e+06,2.5512e+06
43.2235,2.26294e+06,2.5512e+06
43.2631,2.26294e+06,2.55122e+06
43.3031,2.26294e+06,2.55123e+06
43.3441,2.26295e+06,2.55125e+06
43.3841,2.26294e+06,2.55126e+06
43.4243,2.26295e+06,2.55127e+06
43.4641,2.26294e+06,2.55128e+06
43.5061,2.26295e+06,2.55128e+06
43.5452,2.26294e+06,2.55129e+06
43.5852,2.26294e+06,2.5513e+06
43.6251,2.26294e+06,2.55131e+06
43.6651,2.26292e+06,2.55131e+06
43.7065,2.26291e+06,2.55128e+06
43.7463,2.26286e+06,2.55114e+06
43.7861,2.26284e+06,2.55106e+06
43.8265,2.26285e+06,2.55106e+06
43.8671,2.26286e+06,2.55111e+06
43.9071,2.26286e+06,2.55114e+06
43.9471,2.26288e+06,2.55115e+06
43.9871,2.26286e+06,2.55116e+06
44.0281,2.26286e+06,2.55115e+06
44.0681,2.26286e+06,2.55116e+06
44.1086,2.26285e+06,2.55116e+06
44.1482,2.26286e+06,2.55119e+06
44.1882,2.26285e+06,2.55119e+06
44.2292,2.26286e+06,2.55123e+06
44.2691,2.26287e+06,2.55125e+06
44.3091,2.26288e+06,2.55128e+06
44.3491,2.26287e+06,2.55128e+06
44.3901,2.26288e+06,2.55129e+06
44.4301,2.26287e+06,2.5513e+06
44.47,2.26288e+06,2.55131e+06
44.5109,2.26288e+06,2.55134e+06
44.5511,2.26289e+06,2.55135e+06
44.5911,2.26288e+06,2.55136e+06
44.6311,2.26287e+06,2.55137e+06
44.6714,2.26286e+06,2.55132e+06
44.7111,2.26282e+06,2.55118e+06
44.7521,2.26281e+06,2.55113e+06
44.792,2.26281e+06,2.55116e+06
44.8321,2.26283e+06,2.55121e+06
44.8721,2.26283e+06,2.55124e+06
44.9131,2.26285e+06,2.55125e+06
44.953,2.26285e+06,2.55128e+06
44.9947,2.26285e+06,2.55128e+06
45.0331,2.26286e+06,2.55128e+06
45.073,2.26285e+06,2.55128e+06
45.1141,2.26285e+06,2.55131e+06
45.1541,2.26286e+06,2.55132e+06
45.1941,2.26286e+06,2.55135e+06
45.2343,2.26285e+06,2.55135e+06
45.275,2.26286e+06,2.55138e+06
45.3151,2.26284e+06,2.55137e+06
45.355,2.26284e+06,2.55138e+06
45.395,2.26283e+06,2.55138e+06
45.436,2.26284e+06,2.55139e+06
45.4765,2.26283e+06,2.55141e+06
45.516,2.26284e+06,2.55141e+06
45.556,2.26283e+06,2.55142e+06
45.5971,2.26282e+06,2.55135e+06
45.6371,2.26278e+06,2.55122e+06
45.6771,2.26276e+06,2.55114e+06
45.717,2.26277e+06,2.55117e+06
45.757,2.26278e+06,2.55121e+06
45.798,2.2628e+06,2.55126e+06
45.838,2.26281e+06,2.55127e+06
45.878,2.26281e+06,2.55128e+06
45.918,2.26279e+06,2.55127e+06
45.9591,2.26281e+06,2.55126e+06
45.999,2.2628e+06,2.55127e+06
46.039,2.26281e+06,2.55129e+06
46.0791,2.2628e+06,2.5513e+06
46.12,2.2628e+06,2.5513e+06
46.16,2.2628e+06,2.55133e+06
46.2001,2.26282e+06,2.55134e+06
46.24,2.26282e+06,2.55134e+06
46.28,2.26281e+06,2.55134e+06
46.321,2.26281e+06,2.55136e+06
46.361,2.2628e+06,2.55136e+06
46.401,2.2628e+06,2.55137e+06
46.441,2.26276e+06,2.55136e+06
46.482,2.26273e+06,2.55136e+06
46.5225,2.26272e+06,2.55132e+06
46.5628,2.2627e+06,2.5512e+06
46.602,2.26268e+06,2.55108e+06
46.643,2.26269e+06,2.55106e+06
46.6831,2.2627e+06,2.55112e+06
46.723,2.26271e+06,2.55116e+06
46.7632,2.26271e+06,2.55118e+06
46.803,2.2627e+06,2.55119e+06
46.8444,2.2627e+06,2.55121e+06
46.884,2.26269e+06,2.5512e+06
46.924,2.2627e+06,2.55122e+06
46.964,2.26268e+06,2.55122e+06
47.0056,2.2627e+06,2.55124e+06
47.045,2.26269e+06,2.55127e+06
47.085,2.2627e+06,2.55129e+06
47.1253,2.2627e+06,2.55129e+06
47.166,2.2627e+06,2.55129e+06
47.206,2.26269e+06,2.55131e+06
47.246,2.26269e+06,2.55132e+06
47.2859,2.26269e+06,2.55133e+06
47.3259,2.26269e+06,2.55134e+06
47.367,2.26269e+06,2.55136e+06
47.407,2.26269e+06,2.55137e+06
47.4469,2.26269e+06,2.55139e+06
47.4869,2.26266e+06,2.55137e+06
47.528,2.26264e+06,2.5513e+06
47.5679,2.26259e+06,2.55116e+06
47.608,2.2626e+06,2.5511e+06
47.648,2.2626e+06,2.55113e+06
47.689,2.26262e+06,2.55118e+06
47.729,2.26263e+06,2.5512e+06
47.7689,2.26264e+06,2.55123e+06
47.809,2.26264e+06,2.55125e+06
47.8499,2.26265e+06,2.55124e+06
47.89,2.26266e+06,2.55126e+06
47.93,2.26264e+06,2.55127e+06
47.9703,2.26265e+06,2.5513e+06
48.0105,2.26266e+06,2.5513e+06
48.0514,2.26266e+06,2.55133e+06
48.091,2.26266e+06,2.55134e+06
48.131,2.26267e+06,2.55137e+06
48.1713,2.26266e+06,2.55137e+06
48.213,2.26268e+06,2.55139e+06
48.2519,2.26266e+06,2.55139e+06
48.2919,2.26267e+06,2.5514e+06
48.332,2.26266e+06,2.55142e+06
48.373,2.26266e+06,2.55142e+06
48.413,2.26265e+06,2.55143e+06
48.4531,2.26262e+06,2.55136e+06
48.493,2.26258e+06,2.55121e+06
48.534,2.26256e+06,2.55111e+06
48.5739,2.26257e+06,2.55115e+06
48.614,2.26258e+06,2.55119e+06
48.6539,2.26259e+06,2.55124e+06
48.694,2.2626e+06,2.55126e+06
48.7351,2.26258e+06,2.55126e+06
48.775,2.26258e+06,2.55125e+06
48.815,2.26259e+06,2.55125e+06
48.855,2.26258e+06,2.55126e+06
48.8964,2.26259e+06,2.55128e+06
48.9359,2.26258e+06,2.5513e+06
48.9759,2.26258e+06,2.55131e+06
49.0161,2.26256e+06,2.55132e+06
49.056,2.2625e+06,2.55132e+06
49.097,2.26238e+06,2.5513e+06
49.1376,2.26222e+06,2.55121e+06
49.177,2.26204e+06,2.55117e+06
49.2169,2.2619e+06,2.55112e+06
49.258,2.26187e+06,2.55111e+06
49.298,2.26186e+06,2.55114e+06
49.3382,2.26174e+06,2.55102e+06
49.3779,2.26163e+06,2.55088e+06
49.4192,2.26162e+06,2.55078e+06
49.4591,2.26162e+06,2.55077e+06
49.4995,2.2616e+06,2.55074e+06
49.539,2.26166e+06,2.55079e+06
49.5789,2.26175e+06,2.55083e+06
49.6198,2.26178e+06,2.55085e+06
49.6602,2.26186e+06,2.55087e+06
49.7008,2.26196e+06,2.55092e+06
49.7399,2.26204e+06,2.55092e+06
49.7809,2.26214e+06,2.55098e+06
49.8208,2.26222e+06,2.55104e+06
49.8609,2.26231e+06,2.5511e+06
49.9008,2.26236e+06,2.55111e+06
49.9419,2.26239e+06,2.55112e+06
49.9819,2.26242e+06,2.55114e+06
50.0219,2.26246e+06,2.55114e+06
50.0619,2.26247e+06,2.55115e+06
50.1018,2.26246e+06,2.55115e+06
50.1428,2.26248e+06,2.55117e+06
50.1829,2.26244e+06,2.55117e+06
50.2229,2.26239e+06,2.55118e+06
50.2628,2.26236e+06,2.5512e+06
50.3038,2.26234e+06,2.55118e+06
50.3443,2.26224e+06,2.551e+06
50.3838,2.26219e+06,2.5508e+06
50.4242,2.26216e+06,2.55077e+06
50.4648,2.26218e+06,2.55082e+06
50.5048,2.2622e+06,2.55088e+06
50.5448,2.26222e+06,2.55092e+06
50.5859,2.26221e+06,2.55097e+06
50.6248,2.26223e+06,2.55097e+06
50.6658,2.26224e+06,2.55098e+06
50.7058,2.26223e+06,2.55099e+06
50.7458,2.26224e+06,2.55104e+06
50.7858,2.26228e+06,2.55106e+06
50.8268,2.26231e+06,2.55109e+06
50.8668,2.26231e+06,2.55111e+06
50.9068,2.26233e+06,2.55113e+06
50.9469,2.26235e+06,2.55116e+06
50.9882,2.26239e+06,2.55118e+06
51.0278,2.26237e+06,2.55119e+06
51.0678,2.26238e+06,2.55119e+06
51.1078,2.2624e+06,2.55122e+06
51.1478,2.2624e+06,2.55122e+06
51.1891,2.26239e+06,2.55124e+06
51.2288,2.26236e+06,2.55125e+06
51.2688,2.26234e+06,2.55122e+06
51.3098,2.26228e+06,2.55103e+06
51.3498,2.26224e+06,2.55082e+06
51.3898,2.26224e+06,2.55077e+06
51.4298,2.26225e+06,2.55082e+06
51.4704,2.26226e+06,2.55085e+06
51.5108,2.26226e+06,2.55087e+06
51.5508,2.26224e+06,2.5509e+06
51.5908,2.26223e+06,2.55089e+06
51.6309,2.26222e+06,2.55089e+06
51.6708,2.2622e+06,2.55089e+06
51.7118,2.26219e+06,2.55093e+06
51.7518,2.2622e+06,2.55096e+06
51.7918,2.2622e+06,2.55101e+06
51.8318,2.2622e+06,2.55103e+06
51.8727,2.26223e+06,2.55106e+06
51.9127,2.2622e+06,2.55106e+06
51.9528,2.26218e+06,2.55107e+06
51.9929,2.26218e+06,2.55108e+06
52.0338,2.26219e+06,2.5511e+06
52.0738,2.26218e+06,2.55112e+06
52.1138,2.26217e+06,2.55113e+06
52.1538,2.26216e+06,2.55114e+06
52.1948,2.26213e+06,2.55104e+06
52.2348,2.26206e+06,2.55086e+06
52.2748,2.26204e+06,2.55077e+06
52.3147,2.26205e+06,2.55081e+06
52.3549,2.26206e+06,2.55086e+06
52.3959,2.26206e+06,2.5509e+06
52.4358,2.26204e+06,2.55092e+06
52.4758,2.26203e+06,2.55094e+06
52.5158,2.26203e+06,2.55092e+06
52.5575,2.26203e+06,2.55093e+06
52.5967,2.26203e+06,2.55095e+06
52.6367,2.26205e+06,2.55097e+06
52.6767,2.26203e+06,2.55098e+06
52.7178,2.26204e+06,2.551e+06
52.7577,2.26204e+06,2.55103e+06
52.7977,2.26203e+06,2.55103e+06
52.8377,2.26203e+06,2.55104e+06
52.8777,2.26201e+06,2.55104e+06
52.9187,2.262e+06,2.55106e+06
52.9587,2.26199e+06,2.55107e+06
52.9987,2.26201e+06,2.55109e+06
53.0388,2.26199e+06,2.55109e+06
53.0798,2.26201e+06,2.55111e+06
53.1198,2.26199e+06,2.55109e+06
53.1598,2.26196e+06,2.55098e+06
53.1997,2.26191e+06,2.55083e+06
53.2407,2.26192e+06,2.55078e+06
53.281,2.26191e+06,2.55083e+06
53.3207,2.26193e+06,2.55088e+06
53.3607,2.26194e+06,2.5509e+06
53.4017,2.26192e+06,2.5509e+06
53.4417,2.26194e+06,2.55093e+06
53.4817,2.26193e+06,2.55091e+06
53.5221,2.26193e+06,2.55092e+06
53.5618,2.26191e+06,2.55092e+06
53.6027,2.26191e+06,2.55095e+06
53.6427,2.26192e+06,2.55097e+06
53.6828,2.26194e+06,2.551e+06
53.7227,2.26192e+06,2.55101e+06
53.7638,2.26192e+06,2.55102e+06
53.8037,2.26192e+06,2.55103e+06
53.8437,2.26194e+06,2.55104e+06
53.8837,2.26193e+06,2.55105e+06
53.9247,2.26194e+06,2.55107e+06
53.9647,2.26194e+06,2.55108e+06
54.0047,2.26193e+06,2.5511e+06
54.0451,2.26195e+06,2.55113e+06
54.0847,2.26193e+06,2.55112e+06
54.1257,2.26192e+06,2.55108e+06
54.1657,2.26187e+06,2.55093e+06
54.2064,2.26186e+06,2.55085e+06
54.2457,2.26187e+06,2.55086e+06
54.2867,2.26189e+06,2.55092e+06
54.3267,2.26189e+06,2.55095e+06
54.3676,2.2619e+06,2.55097e+06
54.4068,2.2619e+06,2.55099e+06
54.4477,2.26191e+06,2.55098e+06
54.4878,2.26191e+06,2.55099e+06
54.5276,2.26193e+06,2.55098e+06
54.5676,2.26192e+06,2.55101e+06
54.6077,2.26191e+06,2.55102e+06
54.6487,2.26192e+06,2.55104e+06
54.6886,2.26192e+06,2.55105e+06
54.7287,2.26192e+06,2.55107e+06
54.7697,2.2619e+06,2.55107e+06
54.8111,2.26193e+06,2.5511e+06
54.8497,2.26194e+06,2.5511e+06
54.8896,2.26193e+06,2.5511e+06
54.9296,2.26192e+06,2.55111e+06
54.9707,2.26192e+06,2.55112e+06
55.0106,2.26192e+06,2.55114e+06
55.0506,2.26192e+06,2.55112e+06
55.0907,2.26186e+06,2.551e+06
55.1318,2.26183e+06,2.55087e+06
55.1716,2.26183e+06,2.55085e+06
55.2117,2.26184e+06,2.55089e+06
55.2516,2.26183e+06,2.55094e+06
55.2916,2.26184e+06,2.55096e+06
55.3326,2.26183e+06,2.55098e+06
55.3726,2.26182e+06,2.55097e+06
55.4126,2.26183e+06,2.55095e+06
55.4527,2.26185e+06,2.55097e+06
55.4936,2.26184e+06,2.55098e+06
55.5336,2.26184e+06,2.551e+06
55.5736,2.26184e+06,2.55101e+06
55.6136,2.26185e+06,2.55103e+06
55.6542,2.26184e+06,2.55103e+06
55.6951,2.26186e+06,2.55106e+06
55.7352,2.26186e+06,2.55105e+06
55.7746,2.26186e+06,2.55107e+06
55.8147,2.26182e+06,2.55107e+06
55.8557,2.26184e+06,2.55109e+06
55.8957,2.26183e+06,2.55109e+06
55.9356,2.26186e+06,2.55112e+06
55.9756,2.26184e+06,2.55112e+06
56.0166,2.26183e+06,2.55104e+06
56.0566,2.26177e+06,2.55089e+06
56.0967,2.26176e+06,2.55083e+06
56.1366,2.26176e+06,2.55087e+06
56.1766,2.26175e+06,2.5509e+06
56.2176,2.26176e+06,2.55093e+06
56.2577,2.26174e+06,2.55094e+06
56.2986,2.26176e+06,2.55096e+06
56.3376,2.26176e+06,2.55095e+06
56.3786,2.26178e+06,2.55096e+06
56.4189,2.26175e+06,2.55096e+06
56.4586,2.26177e+06,2.55098e+06
56.4986,2.26176e+06,2.551e+06
56.5396,2.26177e+06,2.55102e+06
56.5796,2.26176e+06,2.55104e+06
56.6196,2.26176e+06,2.55106e+06
56.66,2.26173e+06,2.55106e+06
56.7006,2.26173e+06,2.55107e+06
56.7406,2.26172e+06,2.55108e+06
56.7807,2.26171e+06,2.55108e+06
56.8209,2.26172e+06,2.55111e+06
56.8605,2.26172e+06,2.55112e+06
56.9016,2.26171e+06,2.55114e+06
56.9415,2.26169e+06,2.55113e+06
56.9816,2.26169e+06,2.55105e+06
57.0216,2.26166e+06,2.55093e+06
57.0626,2.26168e+06,2.55092e+06
57.103,2.26166e+06,2.55096e+06
57.1426,2.26168e+06,2.551e+06
57.1829,2.2617e+06,2.55104e+06
57.2242,2.26171e+06,2.55106e+06
57.2636,2.26173e+06,2.55107e+06
57.3036,2.26174e+06,2.55105e+06
57.3436,2.26174e+06,2.55106e+06
57.3835,2.26174e+06,2.55106e+06
57.4249,2.26177e+06,2.55112e+06
57.4645,2.26177e+06,2.55114e+06
57.5046,2.26177e+06,2.55115e+06
57.5445,2.26177e+06,2.55115e+06
57.5855,2.26178e+06,2.55116e+06
57.6256,2.26175e+06,2.55116e+06
57.6656,2.26178e+06,2.55117e+06
57.7056,2.26176e+06,2.55118e+06
57.7465,2.26176e+06,2.55118e+06
57.7871,2.26175e+06,2.55119e+06
57.8273,2.26177e+06,2.55118e+06
57.8665,2.26174e+06,2.55107e+06
57.9066,2.2617e+06,2.55096e+06
57.9478,2.26171e+06,2.55097e+06
57.9875,2.26171e+06,2.55101e+06
58.0276,2.2617e+06,2.55106e+06
58.0675,2.2617e+06,2.55108e+06
58.109,2.26169e+06,2.55109e+06
58.1486,2.26168e+06,2.55107e+06
58.1885,2.2617e+06,2.55106e+06
58.2285,2.2617e+06,2.55106e+06
58.2695,2.26172e+06,2.55108e+06
58.3096,2.26172e+06,2.5511e+06
58.3503,2.26174e+06,2.55111e+06
58.3896,2.26175e+06,2.55113e+06
58.4305,2.26178e+06,2.55115e+06
58.4705,2.2618e+06,2.55118e+06
58.5105,2.26181e+06,2.55118e+06
58.5505,2.26182e+06,2.55119e+06
58.5905,2.26181e+06,2.55118e+06
58.6315,2.26183e+06,2.55121e+06
58.6715,2.26182e+06,2.5512e+06
58.7125,2.2618e+06,2.55116e+06
58.7515,2.26175e+06,2.551e+06
58.7929,2.26172e+06,2.55088e+06
58.8326,2.2617e+06,2.55089e+06
58.8725,2.2617e+06,2.55092e+06
58.9125,2.26171e+06,2.55096e+06
58.9535,2.26172e+06,2.55097e+06
58.9935,2.26169e+06,2.55099e+06
59.0336,2.26171e+06,2.55099e+06
59.0735,2.26172e+06,2.55099e+06
59.1146,2.26173e+06,2.551e+06
59.1545,2.26172e+06,2.55102e+06
59.1945,2.26173e+06,2.55103e+06
59.2345,2.26173e+06,2.55105e+06
59.2745,2.26171e+06,2.55106e+06
59.3155,2.26174e+06,2.5511e+06
59.3555,2.26173e+06,2.55109e+06
59.3955,2.26172e+06,2.55111e+06
59.4354,2.26173e+06,2.55111e+06
59.4766,2.26171e+06,2.55111e+06
59.5165,2.26171e+06,2.55114e+06
59.5564,2.26169e+06,2.55114e+06
59.5965,2.26167e+06,2.55112e+06
59.6365,2.26163e+06,2.55098e+06
59.6775,2.26164e+06,2.55085e+06
59.7175,2.26162e+06,2.55082e+06
59.7575,2.26166e+06,2.55088e+06
59.7977,2.26164e+06,2.5509e+06
59.8385,2.26164e+06,2.55094e+06
59.8785,2.26167e+06,2.55096e+06
59.9185,2.26167e+06,2.55096e+06
59.9585,2.26166e+06,2.55096e+06
59.9994,2.26168e+06,2.55098e+06
60.0394,2.2617e+06,2.551e+06
60.0794,2.26171e+06,2.55101e+06
60.1195,2.2617e+06,2.55104e+06
60.1595,2.26171e+06,2.55106e+06
60.2005,2.26172e+06,2.55108e+06
60.2404,2.26172e+06,2.55108e+06
60.2805,2.2617e+06,2.55109e+06
60.3204,2.26168e+06,2.55109e+06
60.3615,2.2617e+06,2.55111e+06
60.4014,2.26167e+06,2.5511e+06
60.4414,2.26165e+06,2.55111e+06
60.4816,2.26165e+06,2.55109e+06
60.5236,2.26162e+06,2.55096e+06
60.5624,2.26158e+06,2.55083e+06
60.6024,2.26158e+06,2.55082e+06
60.6428,2.26159e+06,2.55087e+06
60.6834,2.26161e+06,2.55091e+06
60.7234,2.26161e+06,2.55095e+06
60.7634,2.26161e+06,2.55095e+06
60.8034,2.26161e+06,2.55095e+06
60.8434,2.26161e+06,2.55092e+06
60.8854,2.2616e+06,2.55094e+06
60.9249,2.2616e+06,2.55095e+06
60.9645,2.26161e+06,2.55098e+06
61.0044,2.2616e+06,2.55098e+06
61.0455,2.2616e+06,2.55101e+06
61.0854,2.26158e+06,2.55101e+06
61.1254,2.26158e+06,2.55102e+06
61.1655,2.26156e+06,2.55101e+06
61.2064,2.26155e+06,2.55101e+06
61.2465,2.26151e+06,2.551e+06
61.2864,2.26151e+06,2.55101e+06
61.327,2.2615e+06,2.55102e+06
61.3674,2.26147e+06,2.55096e+06
61.4074,2.26145e+06,2.55083e+06
61.4474,2.26144e+06,2.55075e+06
61.4874,2.26144e+06,2.55078e+06
61.5277,2.26142e+06,2.55079e+06
61.5684,2.26145e+06,2.55083e+06
61.6084,2.26147e+06,2.55085e+06
61.6484,2.26146e+06,2.55086e+06
61.6884,2.26145e+06,2.55085e+06
61.7294,2.26146e+06,2.55084e+06
61.7694,2.26146e+06,2.55085e+06
61.8094,2.26148e+06,2.55087e+06
61.8493,2.26148e+06,2.5509e+06
61.8904,2.26148e+06,2.5509e+06
61.9305,2.26147e+06,2.55092e+06
61.9704,2.26147e+06,2.55092e+06
62.0104,2.26147e+06,2.55095e+06
62.0503,2.26146e+06,2.55094e+06
62.0913,2.26146e+06,2.55095e+06
62.1314,2.26143e+06,2.55094e+06
62.1714,2.26142e+06,2.55097e+06
62.2115,2.26143e+06,2.55098e+06
62.2523,2.26142e+06,2.551e+06
62.2924,2.2614e+06,2.55094e+06
62.3323,2.26136e+06,2.5508e+06
62.3723,2.26136e+06,2.55073e+06
62.4137,2.26137e+06,2.55074e+06
62.4534,2.26137e+06,2.55079e+06
62.4934,2.26138e+06,2.55082e+06
62.5333,2.26139e+06,2.55086e+06
62.5747,2.2614e+06,2.55086e+06
62.6144,2.26139e+06,2.55086e+06
62.6544,2.26139e+06,2.55086e+06
62.6943,2.26141e+06,2.55088e+06
62.7348,2.26141e+06,2.55089e+06
62.7754,2.26142e+06,2.55091e+06
62.8154,2.26141e+06,2.55093e+06
62.8554,2.26141e+06,2.55094e+06
62.8954,2.26141e+06,2.55096e+06
62.9363,2.26143e+06,2.55098e+06
62.9764,2.26144e+06,2.551e+06
63.0165,2.26143e+06,2.551e+06
63.0564,2.26142e+06,2.551e+06
63.0973,2.26143e+06,2.55102e+06
63.1373,2.26144e+06,2.55105e+06
63.1774,2.26144e+06,2.55106e+06
63.2173,2.26146e+06,2.55104e+06
63.2573,2.26141e+06,2.55087e+06
63.2984,2.26137e+06,2.55076e+06
63.3389,2.26136e+06,2.55076e+06
63.3784,2.26137e+06,2.55082e+06
63.4183,2.26135e+06,2.55086e+06
63.4593,2.26139e+06,2.5509e+06
63.4994,2.26138e+06,2.5509e+06
63.5393,2.26137e+06,2.55088e+06
63.5793,2.26136e+06,2.55087e+06
63.6203,2.26137e+06,2.55088e+06
63.6603,2.26139e+06,2.55092e+06
63.7003,2.2614e+06,2.55093e+06
63.7403,2.26138e+06,2.55095e+06
63.7803,2.2614e+06,2.55097e+06
63.8213,2.26141e+06,2.551e+06
63.8613,2.2614e+06,2.55099e+06
63.9013,2.26141e+06,2.55101e+06
63.9419,2.26142e+06,2.55102e+06
63.9823,2.26139e+06,2.55101e+06
64.0223,2.26136e+06,2.55102e+06
64.0624,2.26137e+06,2.55101e+06
64.1023,2.2613e+06,2.55085e+06
64.1433,2.26128e+06,2.55075e+06
64.1833,2.26127e+06,2.55075e+06
64.2235,2.26128e+06,2.55079e+06
64.2633,2.2613e+06,2.55082e+06
64.3044,2.2613e+06,2.55084e+06
64.3443,2.2613e+06,2.55087e+06
64.3843,2.2613e+06,2.55086e+06
64.4244,2.26132e+06,2.55086e+06
64.4643,2.26132e+06,2.55086e+06
64.5053,2.26134e+06,2.55089e+06
64.5453,2.26134e+06,2.55091e+06
64.5852,2.26135e+06,2.55094e+06
64.6257,2.26134e+06,2.55094e+06
64.6663,2.26133e+06,2.55095e+06
64.7063,2.26133e+06,2.55097e+06
64.7465,2.26133e+06,2.55096e+06
64.7863,2.2613e+06,2.55097e+06
64.828,2.2613e+06,2.55096e+06
64.8672,2.26127e+06,2.55097e+06
64.9072,2.26127e+06,2.55097e+06
64.9473,2.26124e+06,2.55097e+06
64.9881,2.26122e+06,2.55088e+06
65.0283,2.26119e+06,2.55074e+06
65.0682,2.26117e+06,2.55069e+06
65.1086,2.26117e+06,2.55073e+06
65.1483,2.26117e+06,2.55076e+06
65.1894,2.26119e+06,2.5508e+06
65.2302,2.26119e+06,2.55082e+06
65.2696,2.26119e+06,2.55084e+06
65.3092,2.26119e+06,2.55082e+06
65.3502,2.2612e+06,2.55082e+06
65.3902,2.26119e+06,2.55084e+06
65.4303,2.26122e+06,2.55086e+06
65.4702,2.2612e+06,2.55088e+06
65.5113,2.2612e+06,2.55089e+06
65.5512,2.2612e+06,2.55091e+06
65.5912,2.2612e+06,2.55093e+06
65.6312,2.26122e+06,2.55095e+06
65.6712,2.26122e+06,2.55095e+06
65.7122,2.26125e+06,2.55098e+06
65.7522,2.26124e+06,2.55098e+06
65.7922,2.26125e+06,2.55101e+06
65.8323,2.26126e+06,2.55103e+06
65.874,2.26126e+06,2.55104e+06
65.9133,2.26125e+06,2.55102e+06
65.9532,2.26122e+06,2.5509e+06
65.9932,2.26118e+06,2.55077e+06
66.0342,2.26119e+06,2.55076e+06
66.0742,2.26118e+06,2.55082e+06
66.1143,2.26121e+06,2.55086e+06
66.1542,2.26121e+06,2.55089e+06
66.1953,2.26121e+06,2.55091e+06
66.2352,2.26121e+06,2.5509e+06
66.2752,2.26122e+06,2.55088e+06
66.3153,2.26121e+06,2.5509e+06
66.3562,2.26122e+06,2.5509e+06
66.3962,2.26124e+06,2.55093e+06
66.4362,2.26123e+06,2.55095e+06
66.4762,2.26124e+06,2.55097e+06
66.5161,2.26121e+06,2.55096e+06
66.5572,2.26118e+06,2.55098e+06
66.5973,2.26117e+06,2.55098e+06
66.6372,2.26118e+06,2.55099e+06
66.6772,2.26118e+06,2.55102e+06
66.7182,2.2612e+06,2.55103e+06
66.7586,2.26118e+06,2.55103e+06
66.7982,2.26117e+06,2.55099e+06
66.8382,2.26112e+06,2.55083e+06
66.8792,2.26109e+06,2.55076e+06
66.9192,2.2611e+06,2.5508e+06
66.9597,2.26111e+06,2.55085e+06
66.9993,2.26114e+06,2.55089e+06
67.0391,2.26114e+06,2.55092e+06
67.0802,2.26114e+06,2.55092e+06
67.1202,2.26113e+06,2.55089e+06
67.1606,2.26113e+06,2.55089e+06
67.2002,2.26115e+06,2.5509e+06
67.2412,2.26117e+06,2.55093e+06
67.2812,2.26118e+06,2.55094e+06
67.3211,2.26121e+06,2.55097e+06
67.3611,2.26119e+06,2.55098e+06
67.4021,2.2612e+06,2.55099e+06
67.4422,2.26119e+06,2.551e+06
67.4821,2.2612e+06,2.55101e+06
67.5222,2.26118e+06,2.55101e+06
67.5632,2.26119e+06,2.55102e+06
67.6031,2.26119e+06,2.55104e+06
67.6432,2.26116e+06,2.55102e+06
67.6831,2.26113e+06,2.55098e+06
67.7241,2.26108e+06,2.55082e+06
67.7642,2.26105e+06,2.55075e+06
67.8051,2.26106e+06,2.55077e+06
67.8451,2.26105e+06,2.5508e+06
67.8841,2.26107e+06,2.55083e+06
67.9257,2.26108e+06,2.55086e+06
67.9653,2.26107e+06,2.55088e+06
68.0051,2.26108e+06,2.55089e+06
68.0452,2.26109e+06,2.55088e+06
68.0861,2.2611e+06,2.5509e+06
68.1262,2.26111e+06,2.55091e+06
68.1661,2.26111e+06,2.55092e+06
68.2061,2.26112e+06,2.55094e+06
68.2472,2.26114e+06,2.55096e+06
68.2871,2.26114e+06,2.55098e+06
68.3272,2.26114e+06,2.55098e+06
68.3671,2.26114e+06,2.551e+06
68.4086,2.26111e+06,2.551e+06
68.4481,2.2611e+06,2.55101e+06
68.4886,2.26111e+06,2.55101e+06
68.5281,2.2611e+06,2.55104e+06
68.5681,2.2611e+06,2.55103e+06
68.6091,2.26108e+06,2.55092e+06
68.6492,2.26105e+06,2.55078e+06
68.6892,2.26103e+06,2.55078e+06
68.7291,2.26103e+06,2.55082e+06
68.7701,2.26106e+06,2.55087e+06
68.8101,2.26106e+06,2.5509e+06
68.8501,2.26106e+06,2.55092e+06
68.8901,2.26104e+06,2.5509e+06
68.9311,2.26106e+06,2.5509e+06
68.971,2.26105e+06,2.55091e+06
69.0121,2.26105e+06,2.55092e+06
69.052,2.26107e+06,2.55094e+06
69.0921,2.26109e+06,2.55097e+06
69.132,2.26111e+06,2.551e+06
69.1721,2.26115e+06,2.55102e+06
69.2121,2.26116e+06,2.55104e+06
69.2521,2.26118e+06,2.55106e+06
69.293,2.2612e+06,2.55108e+06
69.333,2.2612e+06,2.55109e+06
69.3731,2.26119e+06,2.5511e+06
69.4134,2.26119e+06,2.55109e+06
69.4541,2.26117e+06,2.55102e+06
69.4941,2.26112e+06,2.55087e+06
69.5341,2.26111e+06,2.55083e+06
69.5741,2.26111e+06,2.55087e+06
69.6151,2.26114e+06,2.55093e+06
69.655,2.26116e+06,2.55097e+06
69.6951,2.26116e+06,2.55099e+06
69.7351,2.26116e+06,2.55097e+06
69.7761,2.26115e+06,2.55094e+06
69.8161,2.26117e+06,2.55095e+06
69.8561,2.26116e+06,2.55096e+06
69.8961,2.26119e+06,2.551e+06
69.9361,2.26121e+06,2.551e+06
69.977,2.26121e+06,2.55102e+06
70.017,2.2612e+06,2.55102e+06
70.0571,2.26123e+06,2.55105e+06
70.0973,2.26122e+06,2.55104e+06
70.138,2.26121e+06,2.55105e+06
70.178,2.2612e+06,2.55105e+06
70.218,2.26124e+06,2.55109e+06
70.258,2.26124e+06,2.5511e+06
70.2991,2.26124e+06,2.55106e+06
70.339,2.26118e+06,2.55088e+06
70.379,2.26116e+06,2.55074e+06
70.419,2.26115e+06,2.55074e+06
70.4601,2.26118e+06,2.5508e+06
70.5,2.26119e+06,2.55084e+06
70.5401,2.26119e+06,2.55087e+06
70.5801,2.26117e+06,2.55088e+06
70.621,2.26119e+06,2.55088e+06
70.662,2.2612e+06,2.5509e+06
70.701,2.2612e+06,2.5509e+06
70.741,2.26118e+06,2.5509e+06
70.781,2.26117e+06,2.55091e+06
70.822,2.26119e+06,2.55095e+06
70.862,2.26121e+06,2.55098e+06
70.902,2.26122e+06,2.55101e+06
70.9423,2.26122e+06,2.55101e+06
70.983,2.26123e+06,2.55103e+06
71.023,2.26124e+06,2.55105e+06
71.0633,2.26125e+06,2.55106e+06
71.103,2.26124e+06,2.55108e+06
71.144,2.26124e+06,2.55109e+06
71.184,2.26123e+06,2.55104e+06
71.2241,2.26117e+06,2.55086e+06
71.264,2.26113e+06,2.55072e+06
71.305,2.26117e+06,2.55072e+06
71.345,2.26118e+06,2.55079e+06
71.385,2.2612e+06,2.55083e+06
71.425,2.26125e+06,2.55088e+06
71.4651,2.26125e+06,2.55087e+06
71.506,2.26124e+06,2.55086e+06
71.5462,2.26124e+06,2.55084e+06
71.5868,2.26125e+06,2.55086e+06
71.627,2.26125e+06,2.55087e+06
71.667,2.26125e+06,2.55091e+06
71.7073,2.26126e+06,2.55093e+06
71.747,2.26127e+06,2.55097e+06
71.787,2.26127e+06,2.55098e+06
71.828,2.26128e+06,2.55101e+06
71.8679,2.26127e+06,2.55101e+06
71.908,2.26127e+06,2.55103e+06
71.948,2.26126e+06,2.55104e+06
71.989,2.26125e+06,2.55104e+06
72.029,2.26122e+06,2.55097e+06
72.069,2.26116e+06,2.55077e+06
72.1089,2.26113e+06,2.55065e+06
72.1499,2.26114e+06,2.55067e+06
72.1899,2.26116e+06,2.55074e+06
72.2301,2.26118e+06,2.55079e+06
72.2699,2.2612e+06,2.55084e+06
72.31,2.26121e+06,2.55086e+06
72.3509,2.26122e+06,2.55085e+06
72.391,2.26122e+06,2.55084e+06
72.431,2.26125e+06,2.55087e+06
72.4709,2.26126e+06,2.55089e+06
72.512,2.2613e+06,2.55093e+06
72.552,2.26134e+06,2.55096e+06
72.592,2.26138e+06,2.551e+06
72.632,2.26144e+06,2.55102e+06
72.6738,2.26156e+06,2.551e+06
72.713,2.26168e+06,2.55093e+06
72.754,2.26124e+06,2.54992e+06
72.7929,1.71365e+06,1.72738e+06
72.8344,60583,53945
72.8739,9762,9362
72.9139,3947,3799
72.9539,2994,2816
72.9941,2785,2598
73.0349,2762,2562
73.0749,2740,2548
73.1149,2732,2549
73.155,2726,2553
73.196,2720,2554
73.2359,2701,2552
73.2759,2707,2557
73.3159,2724,2562
73.3569,2736,2564
73.3969,2736,2563
73.4375,2741,2567
73.4774,2732,2578
73.5179,2732,2589
73.5579,2743,2642
73.5979,2778,2695
73.6379,2827,2760
73.6789,2864,2803
73.7189,2899,2849
73.7589,2940,2859
73.7989,3001,2880
73.8389,3052,2892
73.88,3106,2903
73.9199,3150,2914
73.9599,3232,2920
73.9999,3301,2908
74.0409,3399,2906
74.0809,3477,2887
74.1216,3575,2898
74.1608,3693,2926
74.2018,3922,2982
74.2418,4281,3064
74.2818,4522,3123
74.3219,4609,3167
74.3628,4651,3185
74.4028,4733,3224
74.4428,4885,3269
74.4828,4925,3266
74.5228,4893,3231
74.5638,4843,3201
74.6038,4827,3186
74.6445,4800,3181
74.6838,4616,3112
74.7248,4426,3045
74.7649,4295,2995
74.805,4208,2964
74.8448,4163,2931
74.8858,4148,2916
74.9258,4095,2883
74.9658,4053,2857
75.0058,4016,2845
75.0468,4001,2845
75.0868,4003,2858
75.1268,4019,2865
75.1669,4024,2875
75.2078,4042,2872
75.2478,4056,2878
75.2878,4048,2862
75.3278,4043,2860
75.3688,4034,2856
75.4089,4035,2867
75.4489,4028,2870
75.4888,4017,2875
75.5288,4011,2870
75.5698,4013,2871
75.6098,3995,2858
75.6503,3993,2853
75.6899,3971,2837
75.7308,3956,2830
75.7708,3934,2831
75.811,3926,2834
75.8511,3908,2835
75.8918,3910,2838
