Program Time [s],data 0,data 1,,,,Program Time [s],data 0,data 1,,,,Program Time [s],data 0,data 1
1415.09,2.27E+06,2.55E+06,,,,1420,2.27E+06,2.55E+06,x,,,1422.53,2.26E+06,2.55E+06
1415.13,2.27E+06,2.55E+06,,,,1420.04,2.27E+06,2.55E+06,,,,1422.57,2.26E+06,2.55E+06
1415.17,2.27E+06,2.55E+06,,,,1420.08,2.27E+06,2.55E+06,,,,1422.61,2.26E+06,2.55E+06
1415.21,2.27E+06,2.55E+06,,,,1420.12,2.27E+06,2.55E+06,,,,1422.65,2.27E+06,2.55E+06
1415.25,2.27E+06,2.55E+06,,,,1420.16,2.27E+06,2.55E+06,,,,1422.69,2.27E+06,2.55E+06
1415.29,2.27E+06,2.55E+06,,,,1420.2,2.27E+06,2.55E+06,,,,1422.73,2.26E+06,2.55E+06
1415.33,2.27E+06,2.55E+06,,,,1420.24,2.27E+06,2.55E+06,,,,1422.77,2.27E+06,2.55E+06
1415.37,2.27E+06,2.55E+06,,,,1420.28,2.27E+06,2.55E+06,,,,1422.81,2.26E+06,2.55E+06
1415.41,2.27E+06,2.55E+06,,,,1420.32,2.27E+06,2.55E+06,,,,1422.85,2.26E+06,2.55E+06
1415.45,2.27E+06,2.55E+06,,,,1420.36,2.27E+06,2.55E+06,,,,1422.89,2.26E+06,2.55E+06
1415.49,2.27E+06,2.55E+06,,,,1420.4,2.27E+06,2.55E+06,,,,1422.93,2.26E+06,2.55E+06
1415.53,2.27E+06,2.55E+06,,,,1420.44,2.27E+06,2.55E+06,,,,1422.97,2.26E+06,2.55E+06
1415.57,2.27E+06,2.55E+06,,,,1420.48,2.27E+06,2.55E+06,,,,1423.01,2.26E+06,2.55E+06
1415.61,2.27E+06,2.55E+06,,,,1420.52,2.27E+06,2.55E+06,,,,1423.05,2.26E+06,2.55E+06
1415.66,2.27E+06,2.55E+06,,,,1420.56,2.27E+06,2.55E+06,,,,1423.09,2.26E+06,2.55E+06
1415.69,2.27E+06,2.55E+06,,,,1420.6,2.27E+06,2.55E+06,,,,1423.13,2.26E+06,2.55E+06
1415.74,2.27E+06,2.55E+06,,,,1420.64,2.27E+06,2.55E+06,,,,1423.17,2.26E+06,2.55E+06
1415.78,2.27E+06,2.55E+06,,,,1420.68,2.27E+06,2.55E+06,,,,1423.21,2.26E+06,2.55E+06
1415.82,2.27E+06,2.55E+06,,,,1420.72,2.27E+06,2.55E+06,,,,1423.25,2.26E+06,2.55E+06
1415.86,2.27E+06,2.55E+06,,,,1420.76,2.27E+06,2.55E+06,,,,1423.29,2.26E+06,2.55E+06
1415.9,2.27E+06,2.55E+06,,,,1420.8,2.27E+06,2.55E+06,,,,1423.33,2.26E+06,2.55E+06
1415.94,2.27E+06,2.55E+06,,,,1420.84,2.27E+06,2.55E+06,,,,1423.37,2.26E+06,2.55E+06
1415.98,2.27E+06,2.55E+06,,,,1420.88,2.27E+06,2.55E+06,,,,1423.41,2.26E+06,2.55E+06
1416.02,2.27E+06,2.55E+06,,,,1420.92,2.27E+06,2.55E+06,,,,1423.45,2.26E+06,2.55E+06
1416.06,2.27E+06,2.55E+06,,,,1420.96,2.27E+06,2.55E+06,,,,1423.5,2.26E+06,2.55E+06
1416.1,2.27E+06,2.55E+06,,,,1421,2.27E+06,2.55E+06,,,,1423.54,2.26E+06,2.55E+06
1416.14,2.27E+06,2.55E+06,,,,1421.04,2.27E+06,2.55E+06,,,,1423.57,2.26E+06,2.55E+06
1416.18,2.27E+06,2.55E+06,,,,1421.08,2.27E+06,2.55E+06,,,,1423.61,2.26E+06,2.55E+06
1416.22,2.27E+06,2.55E+06,,,,1421.12,2.27E+06,2.55E+06,,,,1423.66,2.26E+06,2.55E+06
1416.26,2.27E+06,2.55E+06,,,,1421.16,2.27E+06,2.55E+06,,,,1423.7,2.26E+06,2.55E+06
1416.3,2.27E+06,2.55E+06,,,,1421.2,2.27E+06,2.55E+06,,,,1423.74,2.26E+06,2.55E+06
1416.34,2.27E+06,2.55E+06,,,,1421.24,2.27E+06,2.55E+06,,,,1423.78,2.26E+06,2.55E+06
1416.38,2.27E+06,2.55E+06,,,,1421.28,2.27E+06,2.55E+06,,,,1423.82,2.26E+06,2.55E+06
1416.42,2.27E+06,2.55E+06,,,,1421.32,2.27E+06,2.55E+06,,,,1423.86,2.26E+06,2.55E+06
1416.46,2.27E+06,2.55E+06,,,,1421.36,2.27E+06,2.55E+06,,,,1423.9,2.26E+06,2.55E+06
1416.5,2.27E+06,2.55E+06,,,,1421.4,2.27E+06,2.55E+06,,,,1423.94,2.26E+06,2.55E+06
1416.54,2.27E+06,2.55E+06,,,,1421.44,2.27E+06,2.55E+06,,,,1423.98,2.26E+06,2.55E+06
1416.58,2.27E+06,2.55E+06,,,,1421.48,2.27E+06,2.55E+06,,,,1424.02,2.26E+06,2.55E+06
1416.62,2.27E+06,2.55E+06,,,,1421.52,2.27E+06,2.55E+06,,,,1424.06,2.26E+06,2.55E+06
1416.66,2.27E+06,2.55E+06,,,,1421.56,2.27E+06,2.55E+06,,,,1424.1,2.26E+06,2.55E+06
1416.7,2.27E+06,2.55E+06,,,,1421.6,2.27E+06,2.55E+06,,,,1424.14,2.26E+06,2.55E+06
1416.74,2.27E+06,2.55E+06,,,,1421.65,2.27E+06,2.55E+06,,,,1424.18,2.26E+06,2.55E+06
1416.78,2.27E+06,2.55E+06,,,,1421.69,2.27E+06,2.55E+06,,,,1424.22,2.26E+06,2.55E+06
1416.82,2.27E+06,2.55E+06,,,,1421.73,2.27E+06,2.55E+06,,,,1424.26,2.26E+06,2.55E+06
1416.86,2.27E+06,2.55E+06,,,,1421.77,2.27E+06,2.55E+06,,,,1424.3,2.26E+06,2.55E+06
1416.9,2.27E+06,2.55E+06,,,,1421.81,2.27E+06,2.55E+06,,,,1424.34,2.26E+06,2.55E+06
1416.94,2.27E+06,2.55E+06,,,,1421.85,2.27E+06,2.55E+06,,,,1424.38,2.26E+06,2.55E+06
1416.98,2.27E+06,2.55E+06,,,,1421.89,2.27E+06,2.55E+06,,,,1424.42,2.26E+06,2.55E+06
1417.02,2.27E+06,2.55E+06,,,,1421.93,2.27E+06,2.55E+06,,,,1424.46,2.26E+06,2.55E+06
1417.06,2.27E+06,2.55E+06,,,,1421.97,2.27E+06,2.55E+06,,,,1424.5,2.26E+06,2.55E+06
1417.1,2.27E+06,2.55E+06,,,,1422.01,2.27E+06,2.55E+06,,,,1424.54,2.26E+06,2.55E+06
1417.14,2.27E+06,2.55E+06,,,,1422.05,2.27E+06,2.55E+06,,,,1424.58,2.26E+06,2.55E+06
1417.18,2.27E+06,2.55E+06,,,,1422.09,2.27E+06,2.55E+06,,,,1424.62,2.26E+06,2.55E+06
1417.22,2.27E+06,2.55E+06,,,,1422.13,2.27E+06,2.55E+06,,,,1424.66,2.26E+06,2.55E+06
1417.26,2.27E+06,2.55E+06,,,,1422.17,2.27E+06,2.55E+06,,,,1424.7,2.26E+06,2.55E+06
1417.3,2.27E+06,2.55E+06,,,,1422.21,2.27E+06,2.55E+06,,,,1424.74,2.26E+06,2.55E+06
1417.34,2.27E+06,2.55E+06,,,,1422.25,2.27E+06,2.55E+06,,,,1424.78,2.26E+06,2.55E+06
1417.38,2.27E+06,2.55E+06,,,,1422.29,2.27E+06,2.55E+06,,,,1424.82,2.26E+06,2.55E+06
1417.42,2.27E+06,2.55E+06,,,,1422.33,2.27E+06,2.55E+06,,,,1424.86,2.26E+06,2.55E+06
1417.46,2.27E+06,2.55E+06,,,,1422.37,2.27E+06,2.55E+06,,,,1424.9,2.26E+06,2.55E+06
1417.51,2.27E+06,2.55E+06,,,,1422.41,2.27E+06,2.55E+06,,,,1424.94,2.26E+06,2.55E+06
1417.54,2.27E+06,2.55E+06,,,,1422.45,2.27E+06,2.55E+06,,,,1424.98,2.26E+06,2.55E+06
1417.58,2.27E+06,2.55E+06,,,,1422.49,2.26E+06,2.55E+06,,,,1425.02,2.26E+06,2.55E+06
1417.62,2.27E+06,2.55E+06,,,,1422.53,2.26E+06,2.55E+06,,,,1425.06,2.26E+06,2.55E+06
1417.66,2.27E+06,2.55E+06,,,,1422.57,2.26E+06,2.55E+06,,,,1425.1,2.26E+06,2.55E+06
1417.71,2.27E+06,2.55E+06,,,,1422.61,2.26E+06,2.55E+06,,,,1425.14,2.26E+06,2.55E+06
1417.75,2.27E+06,2.55E+06,,,,1422.65,2.27E+06,2.55E+06,,,,1425.18,2.26E+06,2.55E+06
1417.79,2.27E+06,2.55E+06,,,,1422.69,2.27E+06,2.55E+06,,,,1425.22,2.26E+06,2.55E+06
1417.83,2.27E+06,2.55E+06,,,,1422.73,2.26E+06,2.55E+06,,,,1425.26,2.26E+06,2.55E+06
1417.87,2.27E+06,2.55E+06,,,,1422.77,2.27E+06,2.55E+06,,,,1425.31,2.26E+06,2.55E+06
1417.91,2.27E+06,2.55E+06,,,,1422.81,2.26E+06,2.55E+06,,,,1425.34,2.26E+06,2.55E+06
1417.95,2.27E+06,2.55E+06,,,,1422.85,2.26E+06,2.55E+06,,,,1425.38,2.26E+06,2.55E+06
1417.99,2.27E+06,2.55E+06,,,,1422.89,2.26E+06,2.55E+06,,,,1425.42,2.26E+06,2.55E+06
1418.03,2.27E+06,2.55E+06,,,,1422.93,2.26E+06,2.55E+06,,,,1425.47,2.26E+06,2.55E+06
1418.07,2.27E+06,2.55E+06,,,,1422.97,2.26E+06,2.55E+06,,,,1425.5,2.26E+06,2.55E+06
1418.11,2.27E+06,2.55E+06,,,,1423.01,2.26E+06,2.55E+06,,,,1425.54,2.26E+06,2.55E+06
1418.15,2.27E+06,2.55E+06,,,,1423.05,2.26E+06,2.55E+06,,,,1425.58,2.26E+06,2.55E+06
1418.19,2.27E+06,2.55E+06,,,,1423.09,2.26E+06,2.55E+06,,,,1425.63,2.26E+06,2.55E+06
1418.23,2.27E+06,2.55E+06,,,,1423.13,2.26E+06,2.55E+06,,,,1425.67,2.26E+06,2.55E+06
1418.27,2.27E+06,2.55E+06,,,,1423.17,2.26E+06,2.55E+06,,,,1425.71,2.26E+06,2.55E+06
1418.31,2.27E+06,2.55E+06,,,,1423.21,2.26E+06,2.55E+06,,,,1425.75,2.26E+06,2.55E+06
1418.35,2.27E+06,2.55E+06,,,,1423.25,2.26E+06,2.55E+06,,,,1425.79,2.26E+06,2.55E+06
1418.39,2.27E+06,2.55E+06,,,,1423.29,2.26E+06,2.55E+06,,,,1425.83,2.26E+06,2.55E+06
1418.43,2.27E+06,2.55E+06,,,,1423.33,2.26E+06,2.55E+06,,,,1425.87,2.26E+06,2.55E+06
1418.47,2.27E+06,2.55E+06,,,,1423.37,2.26E+06,2.55E+06,,,,1425.91,2.26E+06,2.55E+06
1418.51,2.27E+06,2.55E+06,,,,1423.41,2.26E+06,2.55E+06,,,,1425.95,2.26E+06,2.55E+06
1418.55,2.27E+06,2.55E+06,,,,1423.45,2.26E+06,2.55E+06,,,,1425.99,2.26E+06,2.55E+06
1418.59,2.27E+06,2.55E+06,,,,1423.5,2.26E+06,2.55E+06,,,,1426.03,2.26E+06,2.55E+06
1418.63,2.27E+06,2.55E+06,,,,1423.54,2.26E+06,2.55E+06,,,,1426.07,2.26E+06,2.55E+06
1418.67,2.27E+06,2.55E+06,,,,1423.57,2.26E+06,2.55E+06,,,,1426.11,2.26E+06,2.55E+06
1418.71,2.27E+06,2.55E+06,,,,1423.61,2.26E+06,2.55E+06,,,,1426.15,2.26E+06,2.55E+06
1418.75,2.27E+06,2.55E+06,,,,1423.66,2.26E+06,2.55E+06,,,,1426.19,2.26E+06,2.55E+06
1418.79,2.27E+06,2.55E+06,,,,1423.7,2.26E+06,2.55E+06,,,,1426.23,2.26E+06,2.55E+06
1418.83,2.27E+06,2.55E+06,,,,1423.74,2.26E+06,2.55E+06,,,,1426.27,2.26E+06,2.55E+06
1418.87,2.27E+06,2.55E+06,,,,1423.78,2.26E+06,2.55E+06,,,,1426.31,2.26E+06,2.55E+06
1418.91,2.27E+06,2.55E+06,,,,1423.82,2.26E+06,2.55E+06,,,,1426.35,2.26E+06,2.55E+06
1418.95,2.27E+06,2.55E+06,,,,1423.86,2.26E+06,2.55E+06,,,,1426.39,2.26E+06,2.55E+06
1418.99,2.27E+06,2.55E+06,,,,1423.9,2.26E+06,2.55E+06,,,,1426.43,2.26E+06,2.55E+06
1419.03,2.27E+06,2.55E+06,,,,1423.94,2.26E+06,2.55E+06,,,,1426.47,2.26E+06,2.55E+06
1419.07,2.27E+06,2.55E+06,,,,1423.98,2.26E+06,2.55E+06,,,,1426.51,2.26E+06,2.55E+06
1419.11,2.27E+06,2.55E+06,,,,1424.02,2.26E+06,2.55E+06,,,,1426.55,2.26E+06,2.55E+06
1419.15,2.27E+06,2.55E+06,,,,1424.06,2.26E+06,2.55E+06,,,,1426.59,2.26E+06,2.55E+06
1419.19,2.27E+06,2.55E+06,,,,1424.1,2.26E+06,2.55E+06,,,,1426.63,2.26E+06,2.55E+06
1419.23,2.27E+06,2.55E+06,,,,1424.14,2.26E+06,2.55E+06,,,,1426.67,2.26E+06,2.55E+06
1419.27,2.27E+06,2.55E+06,,,,1424.18,2.26E+06,2.55E+06,,,,1426.71,2.26E+06,2.55E+06
1419.31,2.27E+06,2.55E+06,,,,1424.22,2.26E+06,2.55E+06,,,,1426.75,2.26E+06,2.55E+06
1419.35,2.27E+06,2.55E+06,,,,1424.26,2.26E+06,2.55E+06,,,,1426.79,2.26E+06,2.55E+06
1419.39,2.27E+06,2.55E+06,,,,1424.3,2.26E+06,2.55E+06,,,,1426.83,2.26E+06,2.55E+06
1419.43,2.27E+06,2.55E+06,,,,1424.34,2.26E+06,2.55E+06,,,,1426.87,2.26E+06,2.55E+06
1419.47,2.27E+06,2.55E+06,,,,1424.38,2.26E+06,2.55E+06,,,,1426.91,2.26E+06,2.55E+06
1419.51,2.27E+06,2.55E+06,,,,1424.42,2.26E+06,2.55E+06,,,,1426.95,2.26E+06,2.55E+06
1419.55,2.27E+06,2.55E+06,,,,1424.46,2.26E+06,2.55E+06,,,,1426.99,2.26E+06,2.55E+06
1419.59,2.27E+06,2.55E+06,,,,1424.5,2.26E+06,2.55E+06,,,,1427.03,2.26E+06,2.55E+06
1419.63,2.27E+06,2.55E+06,,,,1424.54,2.26E+06,2.55E+06,,,,1427.07,2.26E+06,2.55E+06
1419.68,2.27E+06,2.55E+06,,,,1424.58,2.26E+06,2.55E+06,,,,1427.11,2.26E+06,2.55E+06
1419.72,2.27E+06,2.55E+06,,,,1424.62,2.26E+06,2.55E+06,,,,1427.15,2.26E+06,2.55E+06
1419.76,2.27E+06,2.55E+06,,,,1424.66,2.26E+06,2.55E+06,,,,1427.19,2.26E+06,2.55E+06
1419.8,2.27E+06,2.55E+06,,,,1424.7,2.26E+06,2.55E+06,,,,1427.23,2.26E+06,2.55E+06
1419.84,2.27E+06,2.55E+06,,,,1424.74,2.26E+06,2.55E+06,,,,1427.27,2.26E+06,2.55E+06
1419.88,2.27E+06,2.55E+06,,,,1424.78,2.26E+06,2.55E+06,,,,1427.31,2.26E+06,2.55E+06
1419.92,2.27E+06,2.55E+06,,,,1424.82,2.26E+06,2.55E+06,,,,1427.35,2.26E+06,2.55E+06
1419.96,2.27E+06,2.55E+06,,,,1424.86,2.26E+06,2.55E+06,,,,1427.39,2.26E+06,2.55E+06
1420,2.27E+06,2.55E+06,x,,,1424.9,2.26E+06,2.55E+06,,,,1427.43,2.26E+06,2.55E+06
1420.04,2.27E+06,2.55E+06,,,,1424.94,2.26E+06,2.55E+06,,,,1427.48,2.26E+06,2.55E+06
1420.08,2.27E+06,2.55E+06,,,,1424.98,2.26E+06,2.55E+06,,,,1427.52,2.26E+06,2.55E+06
1420.12,2.27E+06,2.55E+06,,,,1425.02,2.26E+06,2.55E+06,,,,1427.55,2.26E+06,2.55E+06
1420.16,2.27E+06,2.55E+06,,,,1425.06,2.26E+06,2.55E+06,,,,1427.6,2.26E+06,2.55E+06
1420.2,2.27E+06,2.55E+06,,,,1425.1,2.26E+06,2.55E+06,,,,1427.64,2.26E+06,2.55E+06
1420.24,2.27E+06,2.55E+06,,,,1425.14,2.26E+06,2.55E+06,,,,1427.68,2.26E+06,2.55E+06
1420.28,2.27E+06,2.55E+06,,,,1425.18,2.26E+06,2.55E+06,,,,1427.72,2.26E+06,2.55E+06
1420.32,2.27E+06,2.55E+06,,,,1425.22,2.26E+06,2.55E+06,,,,1427.76,2.26E+06,2.55E+06
1420.36,2.27E+06,2.55E+06,,,,1425.26,2.26E+06,2.55E+06,,,,1427.8,2.26E+06,2.55E+06
1420.4,2.27E+06,2.55E+06,,,,1425.31,2.26E+06,2.55E+06,,,,1427.84,2.26E+06,2.55E+06
1420.44,2.27E+06,2.55E+06,,,,1425.34,2.26E+06,2.55E+06,,,,1427.88,2.26E+06,2.55E+06
1420.48,2.27E+06,2.55E+06,,,,1425.38,2.26E+06,2.55E+06,,,,1427.92,2.26E+06,2.55E+06
1420.52,2.27E+06,2.55E+06,,,,1425.42,2.26E+06,2.55E+06,,,,1427.96,2.26E+06,2.55E+06
1420.56,2.27E+06,2.55E+06,,,,1425.47,2.26E+06,2.55E+06,,,,1428,2.26E+06,2.55E+06
1420.6,2.27E+06,2.55E+06,,,,1425.5,2.26E+06,2.55E+06,,,,1428.04,2.26E+06,2.55E+06
1420.64,2.27E+06,2.55E+06,,,,1425.54,2.26E+06,2.55E+06,,,,1428.08,2.26E+06,2.55E+06
1420.68,2.27E+06,2.55E+06,,,,1425.58,2.26E+06,2.55E+06,,,,1428.12,2.26E+06,2.55E+06
1420.72,2.27E+06,2.55E+06,,,,1425.63,2.26E+06,2.55E+06,,,,1428.16,2.26E+06,2.55E+06
1420.76,2.27E+06,2.55E+06,,,,1425.67,2.26E+06,2.55E+06,,,,1428.2,2.26E+06,2.55E+06
1420.8,2.27E+06,2.55E+06,,,,1425.71,2.26E+06,2.55E+06,,,,1428.24,2.26E+06,2.55E+06
1420.84,2.27E+06,2.55E+06,,,,1425.75,2.26E+06,2.55E+06,,,,1428.28,2.26E+06,2.55E+06
1420.88,2.27E+06,2.55E+06,,,,1425.79,2.26E+06,2.55E+06,,,,1428.32,2.26E+06,2.55E+06
1420.92,2.27E+06,2.55E+06,,,,1425.83,2.26E+06,2.55E+06,,,,1428.36,2.26E+06,2.55E+06
1420.96,2.27E+06,2.55E+06,,,,1425.87,2.26E+06,2.55E+06,,,,1428.4,2.26E+06,2.55E+06
1421,2.27E+06,2.55E+06,,,,1425.91,2.26E+06,2.55E+06,,,,,,
1421.04,2.27E+06,2.55E+06,,,,1425.95,2.26E+06,2.55E+06,,,,,,
1421.08,2.27E+06,2.55E+06,,,,1425.99,2.26E+06,2.55E+06,,,,,,
1421.12,2.27E+06,2.55E+06,,,,1426.03,2.26E+06,2.55E+06,,,,,,
1421.16,2.27E+06,2.55E+06,,,,1426.07,2.26E+06,2.55E+06,,,,,,
1421.2,2.27E+06,2.55E+06,,,,1426.11,2.26E+06,2.55E+06,,,,,,
1421.24,2.27E+06,2.55E+06,,,,1426.15,2.26E+06,2.55E+06,,,,,,
1421.28,2.27E+06,2.55E+06,,,,1426.19,2.26E+06,2.55E+06,,,,,,
1421.32,2.27E+06,2.55E+06,,,,1426.23,2.26E+06,2.55E+06,,,,,,
1421.36,2.27E+06,2.55E+06,,,,1426.27,2.26E+06,2.55E+06,,,,,,
1421.4,2.27E+06,2.55E+06,,,,1426.31,2.26E+06,2.55E+06,,,,,,
1421.44,2.27E+06,2.55E+06,,,,1426.35,2.26E+06,2.55E+06,,,,,,
1421.48,2.27E+06,2.55E+06,,,,1426.39,2.26E+06,2.55E+06,,,,,,
1421.52,2.27E+06,2.55E+06,,,,1426.43,2.26E+06,2.55E+06,,,,,,
1421.56,2.27E+06,2.55E+06,,,,1426.47,2.26E+06,2.55E+06,,,,,,
1421.6,2.27E+06,2.55E+06,,,,1426.51,2.26E+06,2.55E+06,,,,,,
1421.65,2.27E+06,2.55E+06,,,,1426.55,2.26E+06,2.55E+06,,,,,,
1421.69,2.27E+06,2.55E+06,,,,1426.59,2.26E+06,2.55E+06,,,,,,
1421.73,2.27E+06,2.55E+06,,,,1426.63,2.26E+06,2.55E+06,,,,,,
1421.77,2.27E+06,2.55E+06,,,,1426.67,2.26E+06,2.55E+06,,,,,,
1421.81,2.27E+06,2.55E+06,,,,1426.71,2.26E+06,2.55E+06,,,,,,
1421.85,2.27E+06,2.55E+06,,,,1426.75,2.26E+06,2.55E+06,,,,,,
1421.89,2.27E+06,2.55E+06,,,,1426.79,2.26E+06,2.55E+06,,,,,,
1421.93,2.27E+06,2.55E+06,,,,1426.83,2.26E+06,2.55E+06,,,,,,
1421.97,2.27E+06,2.55E+06,,,,1426.87,2.26E+06,2.55E+06,,,,,,
1422.01,2.27E+06,2.55E+06,,,,1426.91,2.26E+06,2.55E+06,,,,,,
1422.05,2.27E+06,2.55E+06,,,,1426.95,2.26E+06,2.55E+06,,,,,,
1422.09,2.27E+06,2.55E+06,,,,1426.99,2.26E+06,2.55E+06,,,,,,
1422.13,2.27E+06,2.55E+06,,,,1427.03,2.26E+06,2.55E+06,,,,,,
1422.17,2.27E+06,2.55E+06,,,,1427.07,2.26E+06,2.55E+06,,,,,,
1422.21,2.27E+06,2.55E+06,,,,1427.11,2.26E+06,2.55E+06,,,,,,
1422.25,2.27E+06,2.55E+06,,,,1427.15,2.26E+06,2.55E+06,,,,,,
1422.29,2.27E+06,2.55E+06,,,,1427.19,2.26E+06,2.55E+06,,,,,,
1422.33,2.27E+06,2.55E+06,,,,1427.23,2.26E+06,2.55E+06,,,,,,
1422.37,2.27E+06,2.55E+06,,,,1427.27,2.26E+06,2.55E+06,,,,,,
1422.41,2.27E+06,2.55E+06,,,,1427.31,2.26E+06,2.55E+06,,,,,,
1422.45,2.27E+06,2.55E+06,,,,1427.35,2.26E+06,2.55E+06,,,,,,
1422.49,2.26E+06,2.55E+06,,,,1427.39,2.26E+06,2.55E+06,,,,,,
1422.53,2.26E+06,2.55E+06,,,,1427.43,2.26E+06,2.55E+06,,,,,,
1422.57,2.26E+06,2.55E+06,,,,1427.48,2.26E+06,2.55E+06,,,,,,
1422.61,2.26E+06,2.55E+06,,,,1427.52,2.26E+06,2.55E+06,,,,,,
1422.65,2.27E+06,2.55E+06,,,,1427.55,2.26E+06,2.55E+06,,,,,,
1422.69,2.27E+06,2.55E+06,,,,1427.6,2.26E+06,2.55E+06,,,,,,
1422.73,2.26E+06,2.55E+06,,,,1427.64,2.26E+06,2.55E+06,,,,,,
1422.77,2.27E+06,2.55E+06,,,,1427.68,2.26E+06,2.55E+06,,,,,,
1422.81,2.26E+06,2.55E+06,,,,1427.72,2.26E+06,2.55E+06,,,,,,
1422.85,2.26E+06,2.55E+06,,,,1427.76,2.26E+06,2.55E+06,,,,,,
1422.89,2.26E+06,2.55E+06,,,,1427.8,2.26E+06,2.55E+06,,,,,,
1422.93,2.26E+06,2.55E+06,,,,1427.84,2.26E+06,2.55E+06,,,,,,
1422.97,2.26E+06,2.55E+06,,,,1427.88,2.26E+06,2.55E+06,,,,,,
1423.01,2.26E+06,2.55E+06,,,,1427.92,2.26E+06,2.55E+06,,,,,,
1423.05,2.26E+06,2.55E+06,,,,1427.96,2.26E+06,2.55E+06,,,,,,
1423.09,2.26E+06,2.55E+06,,,,1428,2.26E+06,2.55E+06,,,,,,
1423.13,2.26E+06,2.55E+06,,,,1428.04,2.26E+06,2.55E+06,,,,,,
1423.17,2.26E+06,2.55E+06,,,,1428.08,2.26E+06,2.55E+06,,,,,,
1423.21,2.26E+06,2.55E+06,,,,1428.12,2.26E+06,2.55E+06,,,,,,
1423.25,2.26E+06,2.55E+06,,,,1428.16,2.26E+06,2.55E+06,,,,,,
1423.29,2.26E+06,2.55E+06,,,,1428.2,2.26E+06,2.55E+06,,,,,,
1423.33,2.26E+06,2.55E+06,,,,1428.24,2.26E+06,2.55E+06,,,,,,
1423.37,2.26E+06,2.55E+06,,,,1428.28,2.26E+06,2.55E+06,,,,,,
1423.41,2.26E+06,2.55E+06,,,,1428.32,2.26E+06,2.55E+06,,,,,,
1423.45,2.26E+06,2.55E+06,,,,1428.36,2.26E+06,2.55E+06,,,,,,
1423.5,2.26E+06,2.55E+06,,,,1428.4,2.26E+06,2.55E+06,,,,,,
1423.54,2.26E+06,2.55E+06,,,,1428.44,2.26E+06,2.55E+06,,,,,,
1423.57,2.26E+06,2.55E+06,,,,1428.48,2.26E+06,2.55E+06,,,,,,
1423.61,2.26E+06,2.55E+06,,,,1428.52,2.26E+06,2.55E+06,,,,,,
1423.66,2.26E+06,2.55E+06,,,,1428.56,2.26E+06,2.55E+06,,,,,,
1423.7,2.26E+06,2.55E+06,,,,1428.6,2.26E+06,2.55E+06,,,,,,
1423.74,2.26E+06,2.55E+06,,,,1428.64,2.26E+06,2.55E+06,,,,,,
1423.78,2.26E+06,2.55E+06,,,,1428.68,2.26E+06,2.55E+06,,,,,,
1423.82,2.26E+06,2.55E+06,,,,1428.72,2.26E+06,2.55E+06,,,,,,
1423.86,2.26E+06,2.55E+06,,,,1428.76,2.26E+06,2.55E+06,,,,,,
1423.9,2.26E+06,2.55E+06,,,,1428.8,2.26E+06,2.55E+06,,,,,,
1423.94,2.26E+06,2.55E+06,,,,1428.84,2.26E+06,2.55E+06,,,,,,
1423.98,2.26E+06,2.55E+06,,,,1428.88,2.26E+06,2.55E+06,,,,,,
1424.02,2.26E+06,2.55E+06,,,,1428.92,2.26E+06,2.55E+06,,,,,,
1424.06,2.26E+06,2.55E+06,,,,1428.96,2.26E+06,2.55E+06,,,,,,
1424.1,2.26E+06,2.55E+06,,,,1429,2.26E+06,2.55E+06,,,,,,
1424.14,2.26E+06,2.55E+06,,,,1429.04,2.26E+06,2.55E+06,,,,,,
1424.18,2.26E+06,2.55E+06,,,,1429.08,2.26E+06,2.55E+06,,,,,,
1424.22,2.26E+06,2.55E+06,,,,1429.12,2.26E+06,2.55E+06,,,,,,
1424.26,2.26E+06,2.55E+06,,,,1429.16,2.26E+06,2.55E+06,,,,,,
1424.3,2.26E+06,2.55E+06,,,,1429.2,2.26E+06,2.55E+06,,,,,,
1424.34,2.26E+06,2.55E+06,,,,1429.24,2.26E+06,2.55E+06,,,,,,
1424.38,2.26E+06,2.55E+06,,,,1429.28,2.26E+06,2.55E+06,,,,,,
1424.42,2.26E+06,2.55E+06,,,,1429.32,2.26E+06,2.55E+06,,,,,,
1424.46,2.26E+06,2.55E+06,,,,1429.36,2.26E+06,2.55E+06,,,,,,
1424.5,2.26E+06,2.55E+06,,,,1429.4,2.26E+06,2.55E+06,,,,,,
1424.54,2.26E+06,2.55E+06,,,,1429.44,2.26E+06,2.55E+06,,,,,,
1424.58,2.26E+06,2.55E+06,,,,1429.48,2.26E+06,2.55E+06,,,,,,
1424.62,2.26E+06,2.55E+06,,,,1429.52,2.26E+06,2.55E+06,,,,,,
1424.66,2.26E+06,2.55E+06,,,,1429.57,2.26E+06,2.55E+06,,,,,,
1424.7,2.26E+06,2.55E+06,,,,1429.61,2.26E+06,2.55E+06,,,,,,
1424.74,2.26E+06,2.55E+06,,,,1429.65,2.26E+06,2.55E+06,,,,,,
1424.78,2.26E+06,2.55E+06,,,,1429.69,2.26E+06,2.55E+06,,,,,,
1424.82,2.26E+06,2.55E+06,,,,1429.73,2.26E+06,2.55E+06,,,,,,
1424.86,2.26E+06,2.55E+06,,,,1429.77,2.26E+06,2.55E+06,,,,,,
1424.9,2.26E+06,2.55E+06,,,,1429.81,2.26E+06,2.55E+06,,,,,,
1424.94,2.26E+06,2.55E+06,,,,1429.85,2.26E+06,2.55E+06,,,,,,
1424.98,2.26E+06,2.55E+06,,,,1429.89,2.26E+06,2.55E+06,,,,,,
1425.02,2.26E+06,2.55E+06,,,,1429.93,2.26E+06,2.55E+06,,,,,,
1425.06,2.26E+06,2.55E+06,,,,1429.97,2.26E+06,2.55E+06,x,,,,,
1425.1,2.26E+06,2.55E+06,,,,,,,,,,,,
1425.14,2.26E+06,2.55E+06,,,,,,,,,,,,
1425.18,2.26E+06,2.55E+06,,,,,,,,,,,,
1425.22,2.26E+06,2.55E+06,,,,,,,,,,,,
1425.26,2.26E+06,2.55E+06,,,,,,,,,,,,
1425.31,2.26E+06,2.55E+06,,,,,,,,,,,,
1425.34,2.26E+06,2.55E+06,,,,,,,,,,,,
1425.38,2.26E+06,2.55E+06,,,,,,,,,,,,
1425.42,2.26E+06,2.55E+06,,,,,,,,,,,,
1425.47,2.26E+06,2.55E+06,,,,,,,,,,,,
1425.5,2.26E+06,2.55E+06,,,,,,,,,,,,
1425.54,2.26E+06,2.55E+06,,,,,,,,,,,,
1425.58,2.26E+06,2.55E+06,,,,,,,,,,,,
1425.63,2.26E+06,2.55E+06,,,,,,,,,,,,
1425.67,2.26E+06,2.55E+06,,,,,,,,,,,,
1425.71,2.26E+06,2.55E+06,,,,,,,,,,,,
1425.75,2.26E+06,2.55E+06,,,,,,,,,,,,
1425.79,2.26E+06,2.55E+06,,,,,,,,,,,,
1425.83,2.26E+06,2.55E+06,,,,,,,,,,,,
1425.87,2.26E+06,2.55E+06,,,,,,,,,,,,
1425.91,2.26E+06,2.55E+06,,,,,,,,,,,,
1425.95,2.26E+06,2.55E+06,,,,,,,,,,,,
1425.99,2.26E+06,2.55E+06,,,,,,,,,,,,
1426.03,2.26E+06,2.55E+06,,,,,,,,,,,,
1426.07,2.26E+06,2.55E+06,,,,,,,,,,,,
1426.11,2.26E+06,2.55E+06,,,,,,,,,,,,
1426.15,2.26E+06,2.55E+06,,,,,,,,,,,,
1426.19,2.26E+06,2.55E+06,,,,,,,,,,,,
1426.23,2.26E+06,2.55E+06,,,,,,,,,,,,
1426.27,2.26E+06,2.55E+06,,,,,,,,,,,,
1426.31,2.26E+06,2.55E+06,,,,,,,,,,,,
1426.35,2.26E+06,2.55E+06,,,,,,,,,,,,
1426.39,2.26E+06,2.55E+06,,,,,,,,,,,,
1426.43,2.26E+06,2.55E+06,,,,,,,,,,,,
1426.47,2.26E+06,2.55E+06,,,,,,,,,,,,
1426.51,2.26E+06,2.55E+06,,,,,,,,,,,,
1426.55,2.26E+06,2.55E+06,,,,,,,,,,,,
1426.59,2.26E+06,2.55E+06,,,,,,,,,,,,
1426.63,2.26E+06,2.55E+06,,,,,,,,,,,,
1426.67,2.26E+06,2.55E+06,,,,,,,,,,,,
1426.71,2.26E+06,2.55E+06,,,,,,,,,,,,
1426.75,2.26E+06,2.55E+06,,,,,,,,,,,,
1426.79,2.26E+06,2.55E+06,,,,,,,,,,,,
1426.83,2.26E+06,2.55E+06,,,,,,,,,,,,
1426.87,2.26E+06,2.55E+06,,,,,,,,,,,,
1426.91,2.26E+06,2.55E+06,,,,,,,,,,,,
1426.95,2.26E+06,2.55E+06,,,,,,,,,,,,
1426.99,2.26E+06,2.55E+06,,,,,,,,,,,,
1427.03,2.26E+06,2.55E+06,,,,,,,,,,,,
1427.07,2.26E+06,2.55E+06,,,,,,,,,,,,
1427.11,2.26E+06,2.55E+06,,,,,,,,,,,,
1427.15,2.26E+06,2.55E+06,,,,,,,,,,,,
1427.19,2.26E+06,2.55E+06,,,,,,,,,,,,
1427.23,2.26E+06,2.55E+06,,,,,,,,,,,,
1427.27,2.26E+06,2.55E+06,,,,,,,,,,,,
1427.31,2.26E+06,2.55E+06,,,,,,,,,,,,
1427.35,2.26E+06,2.55E+06,,,,,,,,,,,,
1427.39,2.26E+06,2.55E+06,,,,,,,,,,,,
1427.43,2.26E+06,2.55E+06,,,,,,,,,,,,
1427.48,2.26E+06,2.55E+06,,,,,,,,,,,,
1427.52,2.26E+06,2.55E+06,,,,,,,,,,,,
1427.55,2.26E+06,2.55E+06,,,,,,,,,,,,
1427.6,2.26E+06,2.55E+06,,,,,,,,,,,,
1427.64,2.26E+06,2.55E+06,,,,,,,,,,,,
1427.68,2.26E+06,2.55E+06,,,,,,,,,,,,
1427.72,2.26E+06,2.55E+06,,,,,,,,,,,,
1427.76,2.26E+06,2.55E+06,,,,,,,,,,,,
1427.8,2.26E+06,2.55E+06,,,,,,,,,,,,
1427.84,2.26E+06,2.55E+06,,,,,,,,,,,,
1427.88,2.26E+06,2.55E+06,,,,,,,,,,,,
1427.92,2.26E+06,2.55E+06,,,,,,,,,,,,
1427.96,2.26E+06,2.55E+06,,,,,,,,,,,,
1428,2.26E+06,2.55E+06,,,,,,,,,,,,
1428.04,2.26E+06,2.55E+06,,,,,,,,,,,,
1428.08,2.26E+06,2.55E+06,,,,,,,,,,,,
1428.12,2.26E+06,2.55E+06,,,,,,,,,,,,
1428.16,2.26E+06,2.55E+06,,,,,,,,,,,,
1428.2,2.26E+06,2.55E+06,,,,,,,,,,,,
1428.24,2.26E+06,2.55E+06,,,,,,,,,,,,
1428.28,2.26E+06,2.55E+06,,,,,,,,,,,,
1428.32,2.26E+06,2.55E+06,,,,,,,,,,,,
1428.36,2.26E+06,2.55E+06,,,,,,,,,,,,
1428.4,2.26E+06,2.55E+06,,,,,,,,,,,,
1428.44,2.26E+06,2.55E+06,,,,,,,,,,,,
1428.48,2.26E+06,2.55E+06,,,,,,,,,,,,
1428.52,2.26E+06,2.55E+06,,,,,,,,,,,,
1428.56,2.26E+06,2.55E+06,,,,,,,,,,,,
1428.6,2.26E+06,2.55E+06,,,,,,,,,,,,
1428.64,2.26E+06,2.55E+06,,,,,,,,,,,,
1428.68,2.26E+06,2.55E+06,,,,,,,,,,,,
1428.72,2.26E+06,2.55E+06,,,,,,,,,,,,
1428.76,2.26E+06,2.55E+06,,,,,,,,,,,,
1428.8,2.26E+06,2.55E+06,,,,,,,,,,,,
1428.84,2.26E+06,2.55E+06,,,,,,,,,,,,
1428.88,2.26E+06,2.55E+06,,,,,,,,,,,,
1428.92,2.26E+06,2.55E+06,,,,,,,,,,,,
1428.96,2.26E+06,2.55E+06,,,,,,,,,,,,
1429,2.26E+06,2.55E+06,,,,,,,,,,,,
1429.04,2.26E+06,2.55E+06,,,,,,,,,,,,
1429.08,2.26E+06,2.55E+06,,,,,,,,,,,,
1429.12,2.26E+06,2.55E+06,,,,,,,,,,,,
1429.16,2.26E+06,2.55E+06,,,,,,,,,,,,
1429.2,2.26E+06,2.55E+06,,,,,,,,,,,,
1429.24,2.26E+06,2.55E+06,,,,,,,,,,,,
1429.28,2.26E+06,2.55E+06,,,,,,,,,,,,
1429.32,2.26E+06,2.55E+06,,,,,,,,,,,,
1429.36,2.26E+06,2.55E+06,,,,,,,,,,,,
1429.4,2.26E+06,2.55E+06,,,,,,,,,,,,
1429.44,2.26E+06,2.55E+06,,,,,,,,,,,,
1429.48,2.26E+06,2.55E+06,,,,,,,,,,,,
1429.52,2.26E+06,2.55E+06,,,,,,,,,,,,
1429.57,2.26E+06,2.55E+06,,,,,,,,,,,,
1429.61,2.26E+06,2.55E+06,,,,,,,,,,,,
1429.65,2.26E+06,2.55E+06,,,,,,,,,,,,
1429.69,2.26E+06,2.55E+06,,,,,,,,,,,,
1429.73,2.26E+06,2.55E+06,,,,,,,,,,,,
1429.77,2.26E+06,2.55E+06,,,,,,,,,,,,
1429.81,2.26E+06,2.55E+06,,,,,,,,,,,,
1429.85,2.26E+06,2.55E+06,,,,,,,,,,,,
1429.89,2.26E+06,2.55E+06,,,,,,,,,,,,
1429.93,2.26E+06,2.55E+06,,,,,,,,,,,,
1429.97,2.26E+06,2.55E+06,x,,,,,,,,,,,
1430.01,2.26E+06,2.55E+06,,,,,,,,,,,,
1430.05,2.26E+06,2.55E+06,,,,,,,,,,,,
1430.09,2.26E+06,2.55E+06,,,,,,,,,,,,
1430.13,2.26E+06,2.55E+06,,,,,,,,,,,,
1430.17,2.26E+06,2.55E+06,,,,,,,,,,,,
1430.21,2.26E+06,2.55E+06,,,,,,,,,,,,
1430.25,2.26E+06,2.55E+06,,,,,,,,,,,,
1430.29,2.26E+06,2.55E+06,,,,,,,,,,,,
1430.33,2.26E+06,2.55E+06,,,,,,,,,,,,
1430.37,2.26E+06,2.55E+06,,,,,,,,,,,,
1430.41,2.26E+06,2.55E+06,,,,,,,,,,,,
1430.45,2.26E+06,2.55E+06,,,,,,,,,,,,
1430.49,2.26E+06,2.55E+06,,,,,,,,,,,,
1430.53,2.26E+06,2.55E+06,,,,,,,,,,,,
1430.57,2.26E+06,2.55E+06,,,,,,,,,,,,
1430.61,2.26E+06,2.55E+06,,,,,,,,,,,,
1430.65,2.26E+06,2.55E+06,,,,,,,,,,,,
1430.69,2.26E+06,2.55E+06,,,,,,,,,,,,
1430.73,2.26E+06,2.55E+06,,,,,,,,,,,,
1430.77,2.26E+06,2.55E+06,,,,,,,,,,,,
1430.81,2.26E+06,2.55E+06,,,,,,,,,,,,
1430.85,2.26E+06,2.55E+06,,,,,,,,,,,,
1430.89,2.26E+06,2.55E+06,,,,,,,,,,,,
1430.93,2.26E+06,2.55E+06,,,,,,,,,,,,
1430.97,2.26E+06,2.55E+06,,,,,,,,,,,,
1431.01,2.26E+06,2.55E+06,,,,,,,,,,,,
1431.05,2.26E+06,2.55E+06,,,,,,,,,,,,
1431.09,2.26E+06,2.55E+06,,,,,,,,,,,,
1431.13,2.26E+06,2.55E+06,,,,,,,,,,,,
1431.17,2.26E+06,2.55E+06,,,,,,,,,,,,
1431.21,2.26E+06,2.55E+06,,,,,,,,,,,,
1431.25,2.26E+06,2.55E+06,,,,,,,,,,,,
1431.29,2.26E+06,2.55E+06,,,,,,,,,,,,
1431.33,2.26E+06,2.55E+06,,,,,,,,,,,,
1431.37,2.26E+06,2.55E+06,,,,,,,,,,,,
1431.41,2.26E+06,2.55E+06,,,,,,,,,,,,
1431.45,2.26E+06,2.55E+06,,,,,,,,,,,,
1431.49,2.26E+06,2.55E+06,,,,,,,,,,,,
1431.54,2.26E+06,2.55E+06,,,,,,,,,,,,
1431.58,2.26E+06,2.55E+06,,,,,,,,,,,,
1431.62,2.26E+06,2.55E+06,,,,,,,,,,,,
1431.66,2.26E+06,2.55E+06,,,,,,,,,,,,
1431.7,2.26E+06,2.55E+06,,,,,,,,,,,,
1431.74,2.26E+06,2.55E+06,,,,,,,,,,,,
1431.78,2.26E+06,2.55E+06,,,,,,,,,,,,
1431.82,2.26E+06,2.55E+06,,,,,,,,,,,,
1431.86,2.26E+06,2.55E+06,,,,,,,,,,,,
1431.9,2.26E+06,2.55E+06,,,,,,,,,,,,
1431.94,2.26E+06,2.55E+06,,,,,,,,,,,,
1431.98,2.26E+06,2.55E+06,,,,,,,,,,,,
1432.02,2.26E+06,2.55E+06,,,,,,,,,,,,
1432.06,2.26E+06,2.55E+06,,,,,,,,,,,,
1432.1,2.26E+06,2.55E+06,,,,,,,,,,,,
1432.14,2.26E+06,2.55E+06,,,,,,,,,,,,
1432.18,2.26E+06,2.55E+06,,,,,,,,,,,,
1432.22,2.26E+06,2.55E+06,,,,,,,,,,,,
1432.26,2.26E+06,2.55E+06,,,,,,,,,,,,
1432.3,2.26E+06,2.55E+06,,,,,,,,,,,,
1432.34,2.26E+06,2.55E+06,,,,,,,,,,,,
1432.38,2.26E+06,2.55E+06,,,,,,,,,,,,
1432.42,2.26E+06,2.55E+06,,,,,,,,,,,,
1432.46,2.26E+06,2.55E+06,,,,,,,,,,,,
1432.5,2.26E+06,2.55E+06,,,,,,,,,,,,
1432.54,2.26E+06,2.55E+06,,,,,,,,,,,,
1432.58,2.26E+06,2.55E+06,,,,,,,,,,,,
1432.62,2.26E+06,2.55E+06,,,,,,,,,,,,
1432.66,2.26E+06,2.55E+06,,,,,,,,,,,,
1432.7,2.26E+06,2.55E+06,,,,,,,,,,,,
1432.74,2.26E+06,2.55E+06,,,,,,,,,,,,
1432.78,2.26E+06,2.55E+06,,,,,,,,,,,,
1432.82,2.26E+06,2.55E+06,,,,,,,,,,,,
1432.86,2.26E+06,2.55E+06,,,,,,,,,,,,
1432.9,2.26E+06,2.55E+06,,,,,,,,,,,,
1432.94,2.26E+06,2.55E+06,,,,,,,,,,,,
1432.98,2.26E+06,2.55E+06,,,,,,,,,,,,
1433.02,2.26E+06,2.55E+06,,,,,,,,,,,,
1433.06,2.26E+06,2.55E+06,,,,,,,,,,,,
1433.1,2.26E+06,2.55E+06,,,,,,,,,,,,
1433.14,2.26E+06,2.55E+06,,,,,,,,,,,,
1433.18,2.26E+06,2.55E+06,,,,,,,,,,,,
1433.22,2.26E+06,2.55E+06,,,,,,,,,,,,
1433.26,2.26E+06,2.55E+06,,,,,,,,,,,,
1433.3,2.26E+06,2.55E+06,,,,,,,,,,,,
1433.34,2.26E+06,2.55E+06,,,,,,,,,,,,
1433.38,2.26E+06,2.55E+06,,,,,,,,,,,,
1433.42,2.26E+06,2.55E+06,,,,,,,,,,,,
1433.47,2.26E+06,2.55E+06,,,,,,,,,,,,
1433.51,2.26E+06,2.55E+06,,,,,,,,,,,,
1433.55,2.26E+06,2.55E+06,,,,,,,,,,,,
1433.59,2.26E+06,2.55E+06,,,,,,,,,,,,
1433.63,2.26E+06,2.55E+06,,,,,,,,,,,,
1433.67,2.26E+06,2.55E+06,,,,,,,,,,,,
1433.71,2.26E+06,2.55E+06,,,,,,,,,,,,
1433.75,2.26E+06,2.55E+06,,,,,,,,,,,,
1433.79,2.26E+06,2.55E+06,,,,,,,,,,,,
1433.83,2.26E+06,2.55E+06,,,,,,,,,,,,
1433.87,2.26E+06,2.55E+06,,,,,,,,,,,,
1433.91,2.26E+06,2.55E+06,,,,,,,,,,,,
1433.95,2.26E+06,2.55E+06,,,,,,,,,,,,
1433.99,2.26E+06,2.55E+06,,,,,,,,,,,,
1434.03,2.26E+06,2.55E+06,,,,,,,,,,,,
1434.07,2.26E+06,2.55E+06,,,,,,,,,,,,
1434.11,2.26E+06,2.55E+06,,,,,,,,,,,,
1434.15,2.26E+06,2.55E+06,,,,,,,,,,,,
1434.19,2.26E+06,2.55E+06,,,,,,,,,,,,
1434.23,2.26E+06,2.55E+06,,,,,,,,,,,,
1434.27,2.26E+06,2.55E+06,,,,,,,,,,,,
1434.31,2.26E+06,2.55E+06,,,,,,,,,,,,
1434.35,2.26E+06,2.55E+06,,,,,,,,,,,,
1434.39,2.26E+06,2.55E+06,,,,,,,,,,,,
1434.43,2.26E+06,2.55E+06,,,,,,,,,,,,
1434.47,2.26E+06,2.55E+06,,,,,,,,,,,,
1434.51,2.26E+06,2.55E+06,,,,,,,,,,,,
1434.55,2.26E+06,2.55E+06,,,,,,,,,,,,
1434.59,2.26E+06,2.55E+06,,,,,,,,,,,,
1434.63,2.26E+06,2.55E+06,,,,,,,,,,,,
1434.67,2.26E+06,2.55E+06,,,,,,,,,,,,
1434.71,2.26E+06,2.55E+06,,,,,,,,,,,,
1434.75,2.26E+06,2.55E+06,,,,,,,,,,,,
1434.79,2.26E+06,2.55E+06,,,,,,,,,,,,
1434.83,2.26E+06,2.55E+06,,,,,,,,,,,,
1434.87,2.26E+06,2.55E+06,,,,,,,,,,,,
1434.91,2.26E+06,2.55E+06,,,,,,,,,,,,
1434.95,2.26E+06,2.55E+06,,,,,,,,,,,,
1434.99,2.26E+06,2.55E+06,,,,,,,,,,,,
1435.03,2.26E+06,2.55E+06,,,,,,,,,,,,
1435.07,2.26E+06,2.55E+06,,,,,,,,,,,,
1435.11,2.26E+06,2.55E+06,,,,,,,,,,,,
1435.15,2.26E+06,2.55E+06,,,,,,,,,,,,
1435.19,2.26E+06,2.55E+06,,,,,,,,,,,,
1435.23,2.26E+06,2.55E+06,,,,,,,,,,,,
1435.27,2.26E+06,2.55E+06,,,,,,,,,,,,
1435.31,2.26E+06,2.55E+06,,,,,,,,,,,,
1435.35,2.26E+06,2.55E+06,,,,,,,,,,,,
1435.4,2.26E+06,2.55E+06,,,,,,,,,,,,
1435.44,2.26E+06,2.55E+06,,,,,,,,,,,,
1435.48,2.26E+06,2.55E+06,,,,,,,,,,,,
1435.52,2.26E+06,2.55E+06,,,,,,,,,,,,
1435.56,2.26E+06,2.55E+06,,,,,,,,,,,,
1435.6,2.26E+06,2.55E+06,,,,,,,,,,,,
1435.64,2.26E+06,2.55E+06,,,,,,,,,,,,
1435.68,2.26E+06,2.55E+06,,,,,,,,,,,,
1435.72,2.26E+06,2.55E+06,,,,,,,,,,,,
1435.76,2.26E+06,2.55E+06,,,,,,,,,,,,
1435.8,2.26E+06,2.55E+06,,,,,,,,,,,,
1435.84,2.26E+06,2.55E+06,,,,,,,,,,,,
1435.88,2.26E+06,2.55E+06,,,,,,,,,,,,
1435.92,2.26E+06,2.55E+06,,,,,,,,,,,,
1435.96,2.26E+06,2.55E+06,,,,,,,,,,,,
1436,2.26E+06,2.55E+06,,,,,,,,,,,,
1436.04,2.26E+06,2.55E+06,,,,,,,,,,,,
1436.08,2.26E+06,2.55E+06,,,,,,,,,,,,
1436.12,2.26E+06,2.55E+06,,,,,,,,,,,,
1436.16,2.26E+06,2.55E+06,,,,,,,,,,,,
1436.2,2.26E+06,2.55E+06,,,,,,,,,,,,
1436.24,2.26E+06,2.55E+06,,,,,,,,,,,,
1436.28,2.26E+06,2.55E+06,,,,,,,,,,,,
1436.32,2.26E+06,2.55E+06,,,,,,,,,,,,
1436.36,2.26E+06,2.55E+06,,,,,,,,,,,,
1436.4,2.26E+06,2.55E+06,,,,,,,,,,,,
1436.44,2.26E+06,2.55E+06,,,,,,,,,,,,
1436.48,2.26E+06,2.55E+06,,,,,,,,,,,,
1436.52,2.26E+06,2.55E+06,,,,,,,,,,,,
1436.56,2.26E+06,2.55E+06,,,,,,,,,,,,
1436.6,2.26E+06,2.55E+06,,,,,,,,,,,,
1436.64,2.26E+06,2.55E+06,,,,,,,,,,,,
1436.68,2.26E+06,2.55E+06,,,,,,,,,,,,
1436.72,2.26E+06,2.55E+06,,,,,,,,,,,,
1436.76,2.26E+06,2.55E+06,,,,,,,,,,,,
1436.8,2.26E+06,2.55E+06,,,,,,,,,,,,
1436.84,2.26E+06,2.55E+06,,,,,,,,,,,,
1436.88,2.26E+06,2.55E+06,,,,,,,,,,,,
1436.92,2.26E+06,2.55E+06,,,,,,,,,,,,
1436.96,2.26E+06,2.55E+06,,,,,,,,,,,,
1437,2.26E+06,2.55E+06,,,,,,,,,,,,
1437.04,2.26E+06,2.55E+06,,,,,,,,,,,,
1437.08,2.26E+06,2.55E+06,,,,,,,,,,,,
1437.12,2.26E+06,2.55E+06,,,,,,,,,,,,
1437.16,2.26E+06,2.55E+06,,,,,,,,,,,,
1437.2,2.26E+06,2.55E+06,,,,,,,,,,,,
1437.24,2.26E+06,2.55E+06,,,,,,,,,,,,
1437.29,2.26E+06,2.55E+06,,,,,,,,,,,,
1437.33,2.26E+06,2.55E+06,,,,,,,,,,,,
1437.36,2.26E+06,2.55E+06,,,,,,,,,,,,
1437.41,2.26E+06,2.55E+06,,,,,,,,,,,,
1437.45,2.26E+06,2.55E+06,,,,,,,,,,,,
1437.49,2.26E+06,2.55E+06,,,,,,,,,,,,
1437.53,2.26E+06,2.55E+06,,,,,,,,,,,,
1437.57,2.26E+06,2.55E+06,,,,,,,,,,,,
1437.61,2.26E+06,2.55E+06,,,,,,,,,,,,
1437.65,2.26E+06,2.55E+06,,,,,,,,,,,,
1437.69,2.26E+06,2.55E+06,,,,,,,,,,,,
1437.73,2.26E+06,2.55E+06,,,,,,,,,,,,
1437.77,2.26E+06,2.55E+06,,,,,,,,,,,,
1437.81,2.26E+06,2.55E+06,,,,,,,,,,,,
1437.85,2.26E+06,2.55E+06,,,,,,,,,,,,
1437.89,2.26E+06,2.55E+06,,,,,,,,,,,,
1437.93,2.26E+06,2.55E+06,,,,,,,,,,,,
1437.97,2.26E+06,2.55E+06,,,,,,,,,,,,
1438.01,2.26E+06,2.55E+06,,,,,,,,,,,,
1438.05,2.26E+06,2.55E+06,,,,,,,,,,,,
1438.09,2.26E+06,2.55E+06,,,,,,,,,,,,
1438.13,2.26E+06,2.55E+06,,,,,,,,,,,,
1438.17,2.26E+06,2.55E+06,,,,,,,,,,,,
1438.21,2.26E+06,2.55E+06,,,,,,,,,,,,
1438.25,2.26E+06,2.55E+06,,,,,,,,,,,,
1438.29,2.26E+06,2.55E+06,,,,,,,,,,,,
1438.33,2.26E+06,2.55E+06,,,,,,,,,,,,
1438.37,2.26E+06,2.55E+06,,,,,,,,,,,,
1438.41,2.26E+06,2.55E+06,,,,,,,,,,,,
1438.45,2.26E+06,2.55E+06,,,,,,,,,,,,
1438.49,2.26E+06,2.55E+06,,,,,,,,,,,,
1438.53,2.26E+06,2.55E+06,,,,,,,,,,,,
1438.57,2.26E+06,2.55E+06,,,,,,,,,,,,
1438.61,2.26E+06,2.55E+06,,,,,,,,,,,,
1438.65,2.26E+06,2.55E+06,,,,,,,,,,,,
1438.69,2.26E+06,2.55E+06,,,,,,,,,,,,
1438.73,2.26E+06,2.55E+06,,,,,,,,,,,,
1438.77,2.26E+06,2.55E+06,,,,,,,,,,,,
1438.81,2.26E+06,2.55E+06,,,,,,,,,,,,
1438.85,2.26E+06,2.55E+06,,,,,,,,,,,,
1438.89,2.26E+06,2.55E+06,,,,,,,,,,,,
1438.93,2.26E+06,2.55E+06,,,,,,,,,,,,
1438.97,2.26E+06,2.55E+06,,,,,,,,,,,,
1439.01,2.26E+06,2.55E+06,,,,,,,,,,,,
1439.05,2.26E+06,2.55E+06,,,,,,,,,,,,
1439.09,2.26E+06,2.55E+06,,,,,,,,,,,,
1439.13,2.26E+06,2.55E+06,,,,,,,,,,,,
1439.17,2.26E+06,2.55E+06,,,,,,,,,,,,
1439.22,2.26E+06,2.55E+06,,,,,,,,,,,,
1439.26,2.26E+06,2.55E+06,,,,,,,,,,,,
1439.29,2.26E+06,2.55E+06,,,,,,,,,,,,
1439.34,2.26E+06,2.55E+06,,,,,,,,,,,,
1439.38,2.26E+06,2.55E+06,,,,,,,,,,,,
1439.42,2.26E+06,2.55E+06,,,,,,,,,,,,
1439.46,2.26E+06,2.55E+06,,,,,,,,,,,,
1439.5,2.26E+06,2.55E+06,,,,,,,,,,,,
1439.54,2.26E+06,2.55E+06,,,,,,,,,,,,
1439.58,2.26E+06,2.55E+06,,,,,,,,,,,,
1439.62,2.26E+06,2.55E+06,,,,,,,,,,,,
1439.66,2.26E+06,2.55E+06,,,,,,,,,,,,
1439.7,2.26E+06,2.55E+06,,,,,,,,,,,,
1439.74,2.26E+06,2.55E+06,,,,,,,,,,,,
1439.78,2.26E+06,2.55E+06,,,,,,,,,,,,
1439.82,2.26E+06,2.55E+06,,,,,,,,,,,,
1439.86,2.26E+06,2.55E+06,,,,,,,,,,,,
1439.9,2.26E+06,2.55E+06,,,,,,,,,,,,
1439.94,2.26E+06,2.55E+06,,,,,,,,,,,,
1439.98,2.26E+06,2.55E+06,,,,,,,,,,,,
1440.02,2.26E+06,2.55E+06,,,,,,,,,,,,
1440.06,2.26E+06,2.55E+06,,,,,,,,,,,,
1440.1,2.26E+06,2.55E+06,,,,,,,,,,,,
1440.14,2.26E+06,2.55E+06,,,,,,,,,,,,
1440.18,2.26E+06,2.55E+06,,,,,,,,,,,,
1440.22,2.26E+06,2.55E+06,,,,,,,,,,,,
1440.26,2.26E+06,2.55E+06,,,,,,,,,,,,
1440.3,2.26E+06,2.55E+06,,,,,,,,,,,,
1440.34,2.26E+06,2.55E+06,,,,,,,,,,,,
1440.38,2.26E+06,2.55E+06,,,,,,,,,,,,
1440.42,2.26E+06,2.55E+06,,,,,,,,,,,,
1440.46,2.26E+06,2.55E+06,,,,,,,,,,,,
1440.5,2.26E+06,2.55E+06,,,,,,,,,,,,
1440.54,2.26E+06,2.55E+06,,,,,,,,,,,,
1440.58,2.26E+06,2.55E+06,,,,,,,,,,,,
1440.62,2.26E+06,2.55E+06,,,,,,,,,,,,
1440.66,2.26E+06,2.55E+06,,,,,,,,,,,,
1440.7,2.26E+06,2.55E+06,,,,,,,,,,,,
1440.74,2.26E+06,2.55E+06,,,,,,,,,,,,
1440.78,2.26E+06,2.55E+06,,,,,,,,,,,,
1440.82,2.26E+06,2.55E+06,,,,,,,,,,,,
1440.86,2.26E+06,2.55E+06,,,,,,,,,,,,
1440.9,2.26E+06,2.55E+06,,,,,,,,,,,,
1440.94,2.26E+06,2.55E+06,,,,,,,,,,,,
1440.98,2.26E+06,2.55E+06,,,,,,,,,,,,
1441.02,2.26E+06,2.55E+06,,,,,,,,,,,,
1441.06,2.26E+06,2.55E+06,,,,,,,,,,,,
1441.1,2.26E+06,2.55E+06,,,,,,,,,,,,
1441.15,2.26E+06,2.55E+06,,,,,,,,,,,,
1441.18,2.26E+06,2.55E+06,,,,,,,,,,,,
1441.23,2.26E+06,2.55E+06,,,,,,,,,,,,
1441.27,2.26E+06,2.55E+06,,,,,,,,,,,,
1441.31,2.26E+06,2.55E+06,,,,,,,,,,,,
1441.35,2.26E+06,2.55E+06,,,,,,,,,,,,
1441.39,2.26E+06,2.55E+06,,,,,,,,,,,,
1441.43,2.26E+06,2.55E+06,,,,,,,,,,,,
1441.47,2.26E+06,2.55E+06,,,,,,,,,,,,
1441.51,2.26E+06,2.55E+06,,,,,,,,,,,,
1441.55,2.26E+06,2.55E+06,,,,,,,,,,,,
1441.59,2.26E+06,2.55E+06,,,,,,,,,,,,
1441.63,2.26E+06,2.55E+06,,,,,,,,,,,,
1441.67,2.26E+06,2.55E+06,,,,,,,,,,,,
1441.71,2.26E+06,2.55E+06,,,,,,,,,,,,
1441.75,2.26E+06,2.55E+06,,,,,,,,,,,,
1441.79,2.26E+06,2.55E+06,,,,,,,,,,,,
1441.83,2.26E+06,2.55E+06,,,,,,,,,,,,
1441.87,2.26E+06,2.55E+06,,,,,,,,,,,,
1441.91,2.26E+06,2.55E+06,,,,,,,,,,,,
1441.95,2.26E+06,2.55E+06,,,,,,,,,,,,
1441.99,2.26E+06,2.55E+06,,,,,,,,,,,,
1442.03,2.26E+06,2.55E+06,,,,,,,,,,,,
1442.07,2.26E+06,2.55E+06,,,,,,,,,,,,
1442.11,2.26E+06,2.55E+06,,,,,,,,,,,,
1442.15,2.26E+06,2.55E+06,,,,,,,,,,,,
1442.19,2.26E+06,2.55E+06,,,,,,,,,,,,
1442.23,2.26E+06,2.55E+06,,,,,,,,,,,,
1442.27,2.26E+06,2.55E+06,,,,,,,,,,,,
1442.31,2.26E+06,2.55E+06,,,,,,,,,,,,
1442.35,2.26E+06,2.55E+06,,,,,,,,,,,,
1442.39,2.26E+06,2.55E+06,,,,,,,,,,,,
1442.43,2.26E+06,2.55E+06,,,,,,,,,,,,
1442.47,2.26E+06,2.55E+06,,,,,,,,,,,,
1442.51,2.26E+06,2.55E+06,,,,,,,,,,,,
1442.55,2.26E+06,2.55E+06,,,,,,,,,,,,
1442.59,2.26E+06,2.55E+06,,,,,,,,,,,,
1442.63,2.26E+06,2.55E+06,,,,,,,,,,,,
1442.67,2.26E+06,2.55E+06,,,,,,,,,,,,
1442.71,2.26E+06,2.55E+06,,,,,,,,,,,,
1442.75,2.26E+06,2.55E+06,,,,,,,,,,,,
1442.79,2.26E+06,2.55E+06,,,,,,,,,,,,
1442.83,2.26E+06,2.55E+06,,,,,,,,,,,,
1442.87,2.26E+06,2.55E+06,,,,,,,,,,,,
1442.92,2.26E+06,2.55E+06,,,,,,,,,,,,
1442.95,2.26E+06,2.55E+06,,,,,,,,,,,,
1443,2.26E+06,2.55E+06,,,,,,,,,,,,
1443.03,2.26E+06,2.55E+06,,,,,,,,,,,,
1443.07,2.26E+06,2.55E+06,,,,,,,,,,,,
1443.12,2.26E+06,2.55E+06,,,,,,,,,,,,
1443.16,2.26E+06,2.55E+06,,,,,,,,,,,,
1443.2,2.26E+06,2.55E+06,,,,,,,,,,,,
1443.24,2.26E+06,2.55E+06,,,,,,,,,,,,
1443.28,2.26E+06,2.55E+06,,,,,,,,,,,,
1443.32,2.26E+06,2.55E+06,,,,,,,,,,,,
1443.36,2.26E+06,2.55E+06,,,,,,,,,,,,
1443.4,2.26E+06,2.55E+06,,,,,,,,,,,,
1443.44,2.26E+06,2.55E+06,,,,,,,,,,,,
1443.48,2.26E+06,2.55E+06,,,,,,,,,,,,
1443.52,2.26E+06,2.55E+06,,,,,,,,,,,,
1443.56,2.26E+06,2.55E+06,,,,,,,,,,,,
1443.6,2.26E+06,2.55E+06,,,,,,,,,,,,
1443.64,2.26E+06,2.55E+06,,,,,,,,,,,,
1443.68,2.26E+06,2.55E+06,,,,,,,,,,,,
1443.72,2.26E+06,2.55E+06,,,,,,,,,,,,
1443.76,2.26E+06,2.55E+06,,,,,,,,,,,,
1443.8,2.26E+06,2.55E+06,,,,,,,,,,,,
1443.84,2.26E+06,2.55E+06,,,,,,,,,,,,
1443.88,2.26E+06,2.55E+06,,,,,,,,,,,,
1443.92,2.26E+06,2.55E+06,,,,,,,,,,,,
1443.96,2.26E+06,2.55E+06,,,,,,,,,,,,
1444,2.26E+06,2.55E+06,,,,,,,,,,,,
1444.04,2.26E+06,2.55E+06,,,,,,,,,,,,
1444.08,2.26E+06,2.55E+06,,,,,,,,,,,,
1444.12,2.26E+06,2.55E+06,,,,,,,,,,,,
1444.16,2.26E+06,2.55E+06,,,,,,,,,,,,
1444.2,2.26E+06,2.55E+06,,,,,,,,,,,,
1444.24,2.26E+06,2.55E+06,,,,,,,,,,,,
1444.28,2.26E+06,2.55E+06,,,,,,,,,,,,
1444.32,2.26E+06,2.55E+06,,,,,,,,,,,,
1444.36,2.26E+06,2.55E+06,,,,,,,,,,,,
1444.4,2.26E+06,2.55E+06,,,,,,,,,,,,
1444.44,2.26E+06,2.55E+06,,,,,,,,,,,,
1444.48,2.26E+06,2.55E+06,,,,,,,,,,,,
1444.52,2.26E+06,2.55E+06,,,,,,,,,,,,
1444.56,2.26E+06,2.55E+06,,,,,,,,,,,,
1444.6,2.26E+06,2.55E+06,,,,,,,,,,,,
1444.64,2.26E+06,2.55E+06,,,,,,,,,,,,
1444.68,2.26E+06,2.55E+06,,,,,,,,,,,,
1444.72,2.26E+06,2.55E+06,,,,,,,,,,,,
1444.76,2.26E+06,2.55E+06,,,,,,,,,,,,
1444.8,2.26E+06,2.55E+06,,,,,,,,,,,,
1444.84,2.26E+06,2.55E+06,,,,,,,,,,,,
1444.89,2.26E+06,2.55E+06,,,,,,,,,,,,
1444.92,2.26E+06,2.55E+06,,,,,,,,,,,,
1444.97,2.26E+06,2.55E+06,,,,,,,,,,,,
1445.01,2.26E+06,2.55E+06,,,,,,,,,,,,
1445.05,2.26E+06,2.55E+06,,,,,,,,,,,,
1445.09,2.26E+06,2.55E+06,,,,,,,,,,,,
1445.13,2.26E+06,2.55E+06,,,,,,,,,,,,
1445.17,2.26E+06,2.55E+06,,,,,,,,,,,,
1445.21,2.26E+06,2.55E+06,,,,,,,,,,,,
1445.25,2.26E+06,2.55E+06,,,,,,,,,,,,
1445.29,2.26E+06,2.55E+06,,,,,,,,,,,,
1445.33,2.26E+06,2.55E+06,,,,,,,,,,,,
1445.37,2.26E+06,2.55E+06,,,,,,,,,,,,
1445.41,2.26E+06,2.55E+06,,,,,,,,,,,,
1445.45,2.26E+06,2.55E+06,,,,,,,,,,,,
1445.49,2.26E+06,2.55E+06,,,,,,,,,,,,
1445.53,2.26E+06,2.55E+06,,,,,,,,,,,,
1445.57,2.26E+06,2.55E+06,,,,,,,,,,,,
1445.61,2.26E+06,2.55E+06,,,,,,,,,,,,
1445.65,2.26E+06,2.55E+06,,,,,,,,,,,,
1445.69,2.26E+06,2.55E+06,,,,,,,,,,,,
1445.73,2.26E+06,2.55E+06,,,,,,,,,,,,
1445.77,2.26E+06,2.55E+06,,,,,,,,,,,,
1445.81,2.26E+06,2.55E+06,,,,,,,,,,,,
1445.85,2.26E+06,2.55E+06,,,,,,,,,,,,
1445.89,2.26E+06,2.55E+06,,,,,,,,,,,,
1445.93,2.26E+06,2.55E+06,,,,,,,,,,,,
1445.97,2.26E+06,2.55E+06,,,,,,,,,,,,
1446.01,2.26E+06,2.55E+06,,,,,,,,,,,,
1446.05,2.26E+06,2.55E+06,,,,,,,,,,,,
1446.09,2.26E+06,2.55E+06,,,,,,,,,,,,
1446.13,2.26E+06,2.55E+06,,,,,,,,,,,,
1446.17,2.26E+06,2.55E+06,,,,,,,,,,,,
1446.21,2.26E+06,2.55E+06,,,,,,,,,,,,
1446.25,2.26E+06,2.55E+06,,,,,,,,,,,,
1446.29,2.26E+06,2.55E+06,,,,,,,,,,,,
1446.33,2.26E+06,2.55E+06,,,,,,,,,,,,
1446.37,2.26E+06,2.55E+06,,,,,,,,,,,,
1446.41,2.26E+06,2.55E+06,,,,,,,,,,,,
1446.45,2.26E+06,2.55E+06,,,,,,,,,,,,
1446.49,2.26E+06,2.55E+06,,,,,,,,,,,,
1446.53,2.26E+06,2.55E+06,,,,,,,,,,,,
1446.57,2.26E+06,2.55E+06,,,,,,,,,,,,
1446.61,2.26E+06,2.55E+06,,,,,,,,,,,,
1446.65,2.26E+06,2.55E+06,,,,,,,,,,,,
1446.69,2.26E+06,2.55E+06,,,,,,,,,,,,
1446.73,2.26E+06,2.55E+06,,,,,,,,,,,,
1446.78,2.26E+06,2.55E+06,,,,,,,,,,,,
1446.81,2.26E+06,2.55E+06,,,,,,,,,,,,
1446.86,2.26E+06,2.55E+06,,,,,,,,,,,,
1446.9,2.26E+06,2.55E+06,,,,,,,,,,,,
1446.94,2.26E+06,2.55E+06,,,,,,,,,,,,
1446.98,2.26E+06,2.55E+06,,,,,,,,,,,,
1447.02,2.26E+06,2.55E+06,,,,,,,,,,,,
1447.06,2.26E+06,2.55E+06,,,,,,,,,,,,
1447.1,2.26E+06,2.55E+06,,,,,,,,,,,,
1447.14,2.26E+06,2.55E+06,,,,,,,,,,,,
1447.18,2.26E+06,2.55E+06,,,,,,,,,,,,
1447.22,2.26E+06,2.55E+06,,,,,,,,,,,,
1447.26,2.26E+06,2.55E+06,,,,,,,,,,,,
1447.3,2.26E+06,2.55E+06,,,,,,,,,,,,
1447.34,2.26E+06,2.55E+06,,,,,,,,,,,,
1447.38,2.26E+06,2.55E+06,,,,,,,,,,,,
1447.42,2.26E+06,2.55E+06,,,,,,,,,,,,
1447.46,2.26E+06,2.55E+06,,,,,,,,,,,,
1447.5,2.26E+06,2.55E+06,,,,,,,,,,,,
1447.54,2.26E+06,2.55E+06,,,,,,,,,,,,
1447.58,2.26E+06,2.55E+06,,,,,,,,,,,,
1447.62,2.26E+06,2.55E+06,,,,,,,,,,,,
1447.66,2.26E+06,2.55E+06,,,,,,,,,,,,
1447.7,2.26E+06,2.55E+06,,,,,,,,,,,,
1447.74,2.26E+06,2.55E+06,,,,,,,,,,,,
1447.78,2.26E+06,2.55E+06,,,,,,,,,,,,
1447.82,2.26E+06,2.55E+06,,,,,,,,,,,,
1447.86,2.26E+06,2.55E+06,,,,,,,,,,,,
1447.9,2.26E+06,2.55E+06,,,,,,,,,,,,
1447.94,2.26E+06,2.55E+06,,,,,,,,,,,,
1447.98,2.26E+06,2.55E+06,,,,,,,,,,,,
1448.02,2.26E+06,2.55E+06,,,,,,,,,,,,
1448.06,2.26E+06,2.55E+06,,,,,,,,,,,,
1448.1,2.26E+06,2.55E+06,,,,,,,,,,,,
1448.14,2.26E+06,2.55E+06,,,,,,,,,,,,
1448.18,2.26E+06,2.55E+06,,,,,,,,,,,,
1448.22,2.26E+06,2.55E+06,,,,,,,,,,,,
1448.26,2.26E+06,2.55E+06,,,,,,,,,,,,
1448.3,2.26E+06,2.55E+06,,,,,,,,,,,,
1448.34,2.26E+06,2.55E+06,,,,,,,,,,,,
1448.38,2.26E+06,2.55E+06,,,,,,,,,,,,
1448.42,2.26E+06,2.55E+06,,,,,,,,,,,,
1448.46,2.26E+06,2.55E+06,,,,,,,,,,,,
1448.5,2.26E+06,2.55E+06,,,,,,,,,,,,
1448.54,2.26E+06,2.55E+06,,,,,,,,,,,,
1448.58,2.26E+06,2.55E+06,,,,,,,,,,,,
1448.62,2.26E+06,2.55E+06,,,,,,,,,,,,
1448.67,2.26E+06,2.55E+06,,,,,,,,,,,,
1448.7,2.26E+06,2.55E+06,,,,,,,,,,,,
1448.74,2.26E+06,2.55E+06,,,,,,,,,,,,
1448.79,2.26E+06,2.55E+06,,,,,,,,,,,,
1448.83,2.26E+06,2.55E+06,,,,,,,,,,,,
1448.87,2.26E+06,2.55E+06,,,,,,,,,,,,
1448.91,2.26E+06,2.55E+06,,,,,,,,,,,,
1448.95,2.26E+06,2.55E+06,,,,,,,,,,,,
1448.99,2.26E+06,2.55E+06,,,,,,,,,,,,
1449.03,2.26E+06,2.55E+06,,,,,,,,,,,,
1449.07,2.26E+06,2.55E+06,,,,,,,,,,,,
1449.11,2.26E+06,2.55E+06,,,,,,,,,,,,
1449.15,2.26E+06,2.55E+06,,,,,,,,,,,,
1449.19,2.26E+06,2.55E+06,,,,,,,,,,,,
1449.23,2.26E+06,2.55E+06,,,,,,,,,,,,
1449.27,2.26E+06,2.55E+06,,,,,,,,,,,,
1449.31,2.26E+06,2.55E+06,,,,,,,,,,,,
1449.35,2.26E+06,2.55E+06,,,,,,,,,,,,
1449.39,2.26E+06,2.55E+06,,,,,,,,,,,,
1449.43,2.26E+06,2.55E+06,,,,,,,,,,,,
1449.47,2.26E+06,2.55E+06,,,,,,,,,,,,
1449.51,2.26E+06,2.55E+06,,,,,,,,,,,,
1449.55,2.26E+06,2.55E+06,,,,,,,,,,,,
1449.59,2.26E+06,2.55E+06,,,,,,,,,,,,
1449.63,2.26E+06,2.55E+06,,,,,,,,,,,,
1449.67,2.26E+06,2.55E+06,,,,,,,,,,,,
1449.71,2.26E+06,2.55E+06,,,,,,,,,,,,
1449.75,2.26E+06,2.55E+06,,,,,,,,,,,,
1449.79,2.26E+06,2.55E+06,,,,,,,,,,,,
1449.83,2.26E+06,2.55E+06,,,,,,,,,,,,
1449.87,2.26E+06,2.55E+06,,,,,,,,,,,,
1449.91,2.26E+06,2.55E+06,,,,,,,,,,,,
1449.95,2.26E+06,2.55E+06,,,,,,,,,,,,
1449.99,2.26E+06,2.55E+06,,,,,,,,,,,,
1450.03,2.26E+06,2.55E+06,,,,,,,,,,,,
1450.07,2.26E+06,2.55E+06,,,,,,,,,,,,
1450.11,2.26E+06,2.55E+06,,,,,,,,,,,,
1450.15,2.26E+06,2.55E+06,,,,,,,,,,,,
1450.19,2.26E+06,2.55E+06,,,,,,,,,,,,
1450.23,2.26E+06,2.55E+06,,,,,,,,,,,,
1450.27,2.26E+06,2.55E+06,,,,,,,,,,,,
1450.31,2.26E+06,2.55E+06,,,,,,,,,,,,
1450.35,2.26E+06,2.55E+06,,,,,,,,,,,,
1450.39,2.26E+06,2.55E+06,,,,,,,,,,,,
1450.43,2.26E+06,2.55E+06,,,,,,,,,,,,
1450.47,2.26E+06,2.55E+06,,,,,,,,,,,,
1450.51,2.26E+06,2.55E+06,,,,,,,,,,,,
1450.55,2.26E+06,2.55E+06,,,,,,,,,,,,
1450.59,2.26E+06,2.55E+06,,,,,,,,,,,,
1450.63,2.26E+06,2.55E+06,,,,,,,,,,,,
1450.67,2.26E+06,2.55E+06,,,,,,,,,,,,
1450.72,2.26E+06,2.55E+06,,,,,,,,,,,,
1450.76,2.26E+06,2.55E+06,,,,,,,,,,,,
1450.8,2.26E+06,2.55E+06,,,,,,,,,,,,
1450.84,2.26E+06,2.55E+06,,,,,,,,,,,,
1450.88,2.26E+06,2.55E+06,,,,,,,,,,,,
1450.92,2.26E+06,2.55E+06,,,,,,,,,,,,
1450.96,2.26E+06,2.55E+06,,,,,,,,,,,,
1451,2.26E+06,2.55E+06,,,,,,,,,,,,
1451.04,2.26E+06,2.55E+06,,,,,,,,,,,,
1451.08,2.26E+06,2.55E+06,,,,,,,,,,,,
1451.12,2.26E+06,2.55E+06,,,,,,,,,,,,
1451.16,2.26E+06,2.55E+06,,,,,,,,,,,,
1451.2,2.26E+06,2.55E+06,,,,,,,,,,,,
1451.24,2.26E+06,2.55E+06,,,,,,,,,,,,
1451.28,2.26E+06,2.55E+06,,,,,,,,,,,,
1451.32,2.26E+06,2.55E+06,,,,,,,,,,,,
1451.36,2.26E+06,2.55E+06,,,,,,,,,,,,
1451.4,2.26E+06,2.55E+06,,,,,,,,,,,,
1451.44,2.26E+06,2.55E+06,,,,,,,,,,,,
1451.48,2.26E+06,2.55E+06,,,,,,,,,,,,
1451.52,2.26E+06,2.55E+06,,,,,,,,,,,,
1451.56,2.26E+06,2.55E+06,,,,,,,,,,,,
1451.6,2.26E+06,2.55E+06,,,,,,,,,,,,
1451.64,2.26E+06,2.55E+06,,,,,,,,,,,,
1451.68,2.26E+06,2.55E+06,,,,,,,,,,,,
1451.72,2.26E+06,2.55E+06,,,,,,,,,,,,
1451.76,2.26E+06,2.55E+06,,,,,,,,,,,,
1451.8,2.26E+06,2.55E+06,,,,,,,,,,,,
1451.84,2.26E+06,2.55E+06,,,,,,,,,,,,
1451.88,2.26E+06,2.55E+06,,,,,,,,,,,,
1451.92,2.26E+06,2.55E+06,,,,,,,,,,,,
1451.96,2.26E+06,2.55E+06,,,,,,,,,,,,
1452,2.26E+06,2.55E+06,,,,,,,,,,,,
1452.04,2.26E+06,2.55E+06,,,,,,,,,,,,
1452.08,2.26E+06,2.55E+06,,,,,,,,,,,,
1452.12,2.26E+06,2.55E+06,,,,,,,,,,,,
1452.16,2.26E+06,2.55E+06,,,,,,,,,,,,
1452.2,2.26E+06,2.55E+06,,,,,,,,,,,,
1452.24,2.26E+06,2.55E+06,,,,,,,,,,,,
1452.28,2.26E+06,2.55E+06,,,,,,,,,,,,
1452.32,2.26E+06,2.55E+06,,,,,,,,,,,,
1452.36,2.26E+06,2.55E+06,,,,,,,,,,,,
1452.4,2.26E+06,2.55E+06,,,,,,,,,,,,
1452.44,2.26E+06,2.55E+06,,,,,,,,,,,,
1452.49,2.26E+06,2.55E+06,,,,,,,,,,,,
1452.52,2.26E+06,2.55E+06,,,,,,,,,,,,
1452.56,2.26E+06,2.55E+06,,,,,,,,,,,,
1452.61,2.26E+06,2.55E+06,,,,,,,,,,,,
1452.65,2.26E+06,2.55E+06,,,,,,,,,,,,
1452.69,2.26E+06,2.55E+06,,,,,,,,,,,,
1452.73,2.26E+06,2.55E+06,,,,,,,,,,,,
1452.77,2.26E+06,2.55E+06,,,,,,,,,,,,
1452.81,2.26E+06,2.55E+06,,,,,,,,,,,,
1452.85,2.26E+06,2.55E+06,,,,,,,,,,,,
1452.89,2.26E+06,2.55E+06,,,,,,,,,,,,
1452.93,2.26E+06,2.55E+06,,,,,,,,,,,,
1452.97,2.26E+06,2.55E+06,,,,,,,,,,,,
1453.01,2.26E+06,2.55E+06,,,,,,,,,,,,
1453.05,2.26E+06,2.55E+06,,,,,,,,,,,,
1453.09,2.26E+06,2.55E+06,,,,,,,,,,,,
1453.13,2.26E+06,2.55E+06,,,,,,,,,,,,
1453.17,2.26E+06,2.55E+06,,,,,,,,,,,,
1453.21,2.26E+06,2.55E+06,,,,,,,,,,,,
1453.25,2.26E+06,2.55E+06,,,,,,,,,,,,
1453.29,2.26E+06,2.55E+06,,,,,,,,,,,,
1453.33,2.26E+06,2.55E+06,,,,,,,,,,,,
1453.37,2.26E+06,2.55E+06,,,,,,,,,,,,
1453.41,2.26E+06,2.55E+06,,,,,,,,,,,,
1453.45,2.26E+06,2.55E+06,,,,,,,,,,,,
1453.49,2.26E+06,2.55E+06,,,,,,,,,,,,
1453.53,2.26E+06,2.55E+06,,,,,,,,,,,,
1453.57,2.26E+06,2.55E+06,,,,,,,,,,,,
1453.61,2.26E+06,2.55E+06,,,,,,,,,,,,
1453.65,2.26E+06,2.55E+06,,,,,,,,,,,,
1453.69,2.26E+06,2.55E+06,,,,,,,,,,,,
1453.73,2.26E+06,2.55E+06,,,,,,,,,,,,
1453.77,2.26E+06,2.55E+06,,,,,,,,,,,,
1453.81,2.26E+06,2.55E+06,,,,,,,,,,,,
1453.85,2.26E+06,2.55E+06,,,,,,,,,,,,
1453.89,2.26E+06,2.55E+06,,,,,,,,,,,,
1453.93,2.26E+06,2.55E+06,,,,,,,,,,,,
1453.97,2.26E+06,2.55E+06,,,,,,,,,,,,
1454.01,2.26E+06,2.55E+06,,,,,,,,,,,,
1454.05,2.26E+06,2.55E+06,,,,,,,,,,,,
1454.09,2.26E+06,2.55E+06,,,,,,,,,,,,
1454.13,2.26E+06,2.55E+06,,,,,,,,,,,,
1454.17,2.26E+06,2.55E+06,,,,,,,,,,,,
1454.21,2.26E+06,2.55E+06,,,,,,,,,,,,
1454.25,2.26E+06,2.55E+06,,,,,,,,,,,,
1454.29,2.26E+06,2.55E+06,,,,,,,,,,,,
1454.33,2.26E+06,2.55E+06,,,,,,,,,,,,
1454.37,2.26E+06,2.55E+06,,,,,,,,,,,,
1454.41,2.26E+06,2.55E+06,,,,,,,,,,,,
1454.45,2.26E+06,2.55E+06,,,,,,,,,,,,
1454.49,2.26E+06,2.55E+06,,,,,,,,,,,,
1454.54,2.26E+06,2.55E+06,,,,,,,,,,,,
1454.58,2.26E+06,2.55E+06,,,,,,,,,,,,
1454.62,2.26E+06,2.55E+06,,,,,,,,,,,,
1454.66,2.26E+06,2.55E+06,,,,,,,,,,,,
1454.7,2.26E+06,2.55E+06,,,,,,,,,,,,
1454.74,2.26E+06,2.55E+06,,,,,,,,,,,,
1454.78,2.26E+06,2.55E+06,,,,,,,,,,,,
1454.82,2.26E+06,2.55E+06,,,,,,,,,,,,
1454.86,2.26E+06,2.55E+06,,,,,,,,,,,,
1454.9,2.26E+06,2.55E+06,,,,,,,,,,,,
1454.94,2.26E+06,2.55E+06,,,,,,,,,,,,
1454.98,2.26E+06,2.55E+06,,,,,,,,,,,,
1455.02,2.26E+06,2.55E+06,,,,,,,,,,,,
1455.06,2.26E+06,2.55E+06,,,,,,,,,,,,
1455.1,2.26E+06,2.55E+06,,,,,,,,,,,,
1455.14,2.26E+06,2.55E+06,,,,,,,,,,,,
1455.18,2.26E+06,2.55E+06,,,,,,,,,,,,
1455.22,2.26E+06,2.55E+06,,,,,,,,,,,,
1455.26,2.26E+06,2.55E+06,,,,,,,,,,,,
1455.3,2.26E+06,2.55E+06,,,,,,,,,,,,
1455.34,2.26E+06,2.55E+06,,,,,,,,,,,,
1455.38,2.26E+06,2.55E+06,,,,,,,,,,,,
1455.42,2.26E+06,2.55E+06,,,,,,,,,,,,
1455.46,2.26E+06,2.55E+06,,,,,,,,,,,,
1455.5,2.26E+06,2.55E+06,,,,,,,,,,,,
1455.54,2.26E+06,2.55E+06,,,,,,,,,,,,
1455.58,2.26E+06,2.55E+06,,,,,,,,,,,,
1455.62,2.26E+06,2.55E+06,,,,,,,,,,,,
1455.66,2.26E+06,2.55E+06,,,,,,,,,,,,
1455.7,2.26E+06,2.55E+06,,,,,,,,,,,,
1455.74,2.26E+06,2.55E+06,,,,,,,,,,,,
1455.78,2.26E+06,2.55E+06,,,,,,,,,,,,
1455.82,2.26E+06,2.55E+06,,,,,,,,,,,,
1455.86,2.26E+06,2.55E+06,,,,,,,,,,,,
1455.9,2.26E+06,2.55E+06,,,,,,,,,,,,
1455.94,2.26E+06,2.55E+06,,,,,,,,,,,,
1455.98,2.26E+06,2.55E+06,,,,,,,,,,,,
1456.02,2.26E+06,2.55E+06,,,,,,,,,,,,
1456.06,2.26E+06,2.55E+06,,,,,,,,,,,,
1456.1,2.26E+06,2.55E+06,,,,,,,,,,,,
1456.14,2.26E+06,2.55E+06,,,,,,,,,,,,
1456.18,2.26E+06,2.55E+06,,,,,,,,,,,,
1456.22,2.26E+06,2.55E+06,,,,,,,,,,,,
1456.26,2.26E+06,2.55E+06,,,,,,,,,,,,
1456.3,2.26E+06,2.55E+06,,,,,,,,,,,,
1456.34,2.26E+06,2.55E+06,,,,,,,,,,,,
1456.38,2.26E+06,2.55E+06,,,,,,,,,,,,
1456.43,2.26E+06,2.55E+06,,,,,,,,,,,,
1456.47,2.26E+06,2.55E+06,,,,,,,,,,,,
1456.51,2.26E+06,2.55E+06,,,,,,,,,,,,
1456.55,2.26E+06,2.55E+06,,,,,,,,,,,,
1456.59,2.26E+06,2.55E+06,,,,,,,,,,,,
1456.63,2.26E+06,2.55E+06,,,,,,,,,,,,
1456.67,2.26E+06,2.55E+06,,,,,,,,,,,,
1456.71,2.26E+06,2.55E+06,,,,,,,,,,,,
1456.75,2.26E+06,2.55E+06,,,,,,,,,,,,
1456.79,2.26E+06,2.55E+06,,,,,,,,,,,,
1456.83,2.26E+06,2.55E+06,,,,,,,,,,,,
1456.87,2.26E+06,2.55E+06,,,,,,,,,,,,
1456.91,2.26E+06,2.55E+06,,,,,,,,,,,,
1456.95,2.26E+06,2.55E+06,,,,,,,,,,,,
1456.99,2.26E+06,2.55E+06,,,,,,,,,,,,
1457.03,2.26E+06,2.55E+06,,,,,,,,,,,,
1457.07,2.26E+06,2.55E+06,,,,,,,,,,,,
1457.11,2.26E+06,2.55E+06,,,,,,,,,,,,
1457.15,2.26E+06,2.55E+06,,,,,,,,,,,,
1457.19,2.26E+06,2.55E+06,,,,,,,,,,,,
1457.23,2.26E+06,2.55E+06,,,,,,,,,,,,
1457.27,2.26E+06,2.55E+06,,,,,,,,,,,,
1457.31,2.26E+06,2.55E+06,,,,,,,,,,,,
1457.35,2.26E+06,2.55E+06,,,,,,,,,,,,
1457.39,2.26E+06,2.55E+06,,,,,,,,,,,,
1457.43,2.26E+06,2.55E+06,,,,,,,,,,,,
1457.47,2.26E+06,2.55E+06,,,,,,,,,,,,
1457.51,2.26E+06,2.55E+06,,,,,,,,,,,,
1457.55,2.26E+06,2.55E+06,,,,,,,,,,,,
1457.59,2.26E+06,2.55E+06,,,,,,,,,,,,
1457.63,2.26E+06,2.55E+06,,,,,,,,,,,,
1457.67,2.26E+06,2.55E+06,,,,,,,,,,,,
1457.71,2.26E+06,2.55E+06,,,,,,,,,,,,
1457.75,2.26E+06,2.55E+06,,,,,,,,,,,,
1457.79,2.26E+06,2.55E+06,,,,,,,,,,,,
1457.83,2.26E+06,2.55E+06,,,,,,,,,,,,
1457.87,2.26E+06,2.55E+06,,,,,,,,,,,,
1457.91,2.26E+06,2.55E+06,,,,,,,,,,,,
1457.95,2.26E+06,2.55E+06,,,,,,,,,,,,
1457.99,2.26E+06,2.55E+06,,,,,,,,,,,,
1458.03,2.26E+06,2.55E+06,,,,,,,,,,,,
1458.07,2.26E+06,2.55E+06,,,,,,,,,,,,
1458.11,2.26E+06,2.55E+06,,,,,,,,,,,,
1458.15,2.26E+06,2.55E+06,,,,,,,,,,,,
1458.19,2.26E+06,2.55E+06,,,,,,,,,,,,
1458.23,2.26E+06,2.55E+06,,,,,,,,,,,,
1458.27,2.26E+06,2.55E+06,,,,,,,,,,,,
1458.32,2.26E+06,2.55E+06,,,,,,,,,,,,
1458.36,2.26E+06,2.55E+06,,,,,,,,,,,,
1458.4,2.26E+06,2.55E+06,,,,,,,,,,,,
1458.44,2.26E+06,2.55E+06,,,,,,,,,,,,
1458.48,2.26E+06,2.55E+06,,,,,,,,,,,,
1458.52,2.26E+06,2.55E+06,,,,,,,,,,,,
1458.56,2.26E+06,2.55E+06,,,,,,,,,,,,
1458.6,2.26E+06,2.55E+06,,,,,,,,,,,,
1458.64,2.26E+06,2.55E+06,,,,,,,,,,,,
1458.68,2.26E+06,2.55E+06,,,,,,,,,,,,
1458.72,2.26E+06,2.55E+06,,,,,,,,,,,,
1458.76,2.26E+06,2.55E+06,,,,,,,,,,,,
1458.8,2.26E+06,2.55E+06,,,,,,,,,,,,
1458.84,2.26E+06,2.55E+06,,,,,,,,,,,,
1458.88,2.26E+06,2.55E+06,,,,,,,,,,,,
1458.92,2.26E+06,2.55E+06,,,,,,,,,,,,
1458.96,2.26E+06,2.55E+06,,,,,,,,,,,,
1459,2.26E+06,2.55E+06,,,,,,,,,,,,
1459.04,2.26E+06,2.55E+06,,,,,,,,,,,,
1459.08,2.26E+06,2.55E+06,,,,,,,,,,,,
1459.12,2.26E+06,2.55E+06,,,,,,,,,,,,
1459.16,2.26E+06,2.55E+06,,,,,,,,,,,,
1459.2,2.26E+06,2.55E+06,,,,,,,,,,,,
1459.24,2.26E+06,2.55E+06,,,,,,,,,,,,
1459.28,2.26E+06,2.55E+06,,,,,,,,,,,,
1459.32,2.26E+06,2.55E+06,,,,,,,,,,,,
1459.36,2.26E+06,2.55E+06,,,,,,,,,,,,
1459.4,2.26E+06,2.55E+06,,,,,,,,,,,,
1459.44,2.26E+06,2.55E+06,,,,,,,,,,,,
1459.48,2.26E+06,2.55E+06,,,,,,,,,,,,
1459.52,2.26E+06,2.55E+06,,,,,,,,,,,,
1459.56,2.26E+06,2.55E+06,,,,,,,,,,,,
1459.6,2.26E+06,2.55E+06,,,,,,,,,,,,
1459.64,2.26E+06,2.55E+06,,,,,,,,,,,,
1459.68,2.26E+06,2.55E+06,,,,,,,,,,,,
1459.72,2.26E+06,2.55E+06,,,,,,,,,,,,
1459.76,2.26E+06,2.55E+06,,,,,,,,,,,,
1459.8,2.26E+06,2.55E+06,,,,,,,,,,,,
1459.84,2.26E+06,2.55E+06,,,,,,,,,,,,
1459.88,2.26E+06,2.55E+06,,,,,,,,,,,,
1459.92,2.26E+06,2.55E+06,,,,,,,,,,,,
1459.96,2.26E+06,2.55E+06,,,,,,,,,,,,
1460,2.26E+06,2.55E+06,,,,,,,,,,,,
1460.04,2.26E+06,2.55E+06,,,,,,,,,,,,
1460.08,2.26E+06,2.55E+06,,,,,,,,,,,,
1460.12,2.26E+06,2.55E+06,,,,,,,,,,,,
1460.16,2.26E+06,2.55E+06,,,,,,,,,,,,
1460.2,2.26E+06,2.55E+06,,,,,,,,,,,,
1460.25,2.26E+06,2.55E+06,,,,,,,,,,,,
1460.29,2.26E+06,2.55E+06,,,,,,,,,,,,
1460.33,2.26E+06,2.55E+06,,,,,,,,,,,,
1460.36,2.26E+06,2.55E+06,,,,,,,,,,,,
1460.41,2.26E+06,2.55E+06,,,,,,,,,,,,
1460.45,2.26E+06,2.55E+06,,,,,,,,,,,,
1460.49,2.26E+06,2.55E+06,,,,,,,,,,,,
1460.53,2.26E+06,2.55E+06,,,,,,,,,,,,
1460.57,2.26E+06,2.55E+06,,,,,,,,,,,,
1460.61,2.26E+06,2.55E+06,,,,,,,,,,,,
1460.65,2.26E+06,2.55E+06,,,,,,,,,,,,
1460.69,2.26E+06,2.55E+06,,,,,,,,,,,,
1460.73,2.26E+06,2.55E+06,,,,,,,,,,,,
1460.77,2.26E+06,2.55E+06,,,,,,,,,,,,
1460.81,2.26E+06,2.55E+06,,,,,,,,,,,,
1460.85,2.26E+06,2.55E+06,,,,,,,,,,,,
1460.89,2.26E+06,2.55E+06,,,,,,,,,,,,
1460.93,2.26E+06,2.55E+06,,,,,,,,,,,,
1460.97,2.26E+06,2.55E+06,,,,,,,,,,,,
1461.01,2.26E+06,2.55E+06,,,,,,,,,,,,
1461.05,2.26E+06,2.55E+06,,,,,,,,,,,,
1461.09,2.26E+06,2.55E+06,,,,,,,,,,,,
1461.13,2.26E+06,2.55E+06,,,,,,,,,,,,
1461.17,2.26E+06,2.55E+06,,,,,,,,,,,,
1461.21,2.26E+06,2.55E+06,,,,,,,,,,,,
1461.25,2.26E+06,2.55E+06,,,,,,,,,,,,
