Program Time [s],data 0,data 1
2.09035,1.99367e+06,2.54203e+06
2.13028,1.99367e+06,2.54206e+06
2.17027,1.99368e+06,2.54208e+06
2.21054,1.99369e+06,2.5421e+06
2.25037,1.9937e+06,2.54212e+06
2.29124,1.99371e+06,2.54216e+06
2.33131,1.99366e+06,2.54203e+06
2.37126,1.99357e+06,2.54174e+06
2.41149,1.99352e+06,2.54158e+06
2.45228,1.99353e+06,2.54158e+06
2.49226,1.99353e+06,2.54163e+06
2.53228,1.99356e+06,2.54168e+06
2.57257,1.99357e+06,2.54172e+06
2.61328,1.99358e+06,2.54173e+06
2.65325,1.99357e+06,2.54171e+06
2.69334,1.99357e+06,2.54171e+06
2.73335,1.99358e+06,2.54174e+06
2.77327,1.99359e+06,2.54177e+06
2.81425,1.99361e+06,2.54183e+06
2.85426,1.99362e+06,2.54186e+06
2.89429,1.99363e+06,2.5419e+06
2.93425,1.99365e+06,2.54193e+06
2.97527,1.99366e+06,2.54196e+06
3.01529,1.99365e+06,2.54199e+06
3.05527,1.99367e+06,2.54201e+06
3.09526,1.99367e+06,2.54204e+06
3.13627,1.99369e+06,2.54207e+06
3.17622,1.9937e+06,2.54212e+06
3.21627,1.99371e+06,2.54213e+06
3.25625,1.9937e+06,2.54208e+06
3.29625,1.9936e+06,2.54176e+06
3.33721,1.99352e+06,2.54146e+06
3.37726,1.99349e+06,2.54137e+06
3.41747,1.99352e+06,2.54143e+06
3.45726,1.99352e+06,2.54148e+06
3.49827,1.99354e+06,2.5415e+06
3.53872,1.99355e+06,2.54153e+06
3.5798,1.99355e+06,2.54152e+06
3.6183,1.99354e+06,2.54149e+06
3.65954,1.99356e+06,2.54152e+06
3.69937,1.99357e+06,2.54158e+06
3.73928,1.99359e+06,2.54164e+06
3.77978,1.99362e+06,2.54173e+06
3.81921,1.99364e+06,2.5418e+06
3.8608,1.99367e+06,2.54188e+06
3.90028,1.99367e+06,2.5419e+06
3.94023,1.99368e+06,2.54186e+06
3.98023,1.99366e+06,2.54183e+06
4.02189,1.99368e+06,2.54186e+06
4.06123,1.99368e+06,2.54189e+06
4.10129,1.99369e+06,2.54188e+06
4.14154,1.99369e+06,2.54186e+06
4.18233,1.99368e+06,2.54179e+06
4.22323,1.99361e+06,2.54157e+06
4.26219,1.99357e+06,2.54146e+06
4.30222,1.99362e+06,2.54165e+06
4.34223,1.99367e+06,2.54185e+06
4.38326,1.99371e+06,2.54197e+06
4.42322,1.99372e+06,2.54203e+06
4.46378,1.99374e+06,2.54206e+06
4.50418,1.99372e+06,2.54205e+06
4.54421,1.9937e+06,2.542e+06
4.58518,1.99369e+06,2.54199e+06
4.62421,1.99369e+06,2.54202e+06
4.66416,1.9937e+06,2.54207e+06
4.70419,1.9937e+06,2.5421e+06
4.74521,1.99371e+06,2.54214e+06
4.78519,1.99372e+06,2.54215e+06
4.82529,1.99372e+06,2.54218e+06
4.86537,1.99371e+06,2.54218e+06
4.90617,1.99372e+06,2.54218e+06
4.94615,1.99372e+06,2.54217e+06
4.98616,1.99373e+06,2.54214e+06
5.02618,1.9937e+06,2.54206e+06
5.06797,1.99364e+06,2.54182e+06
5.10789,1.99357e+06,2.54162e+06
5.14716,1.99356e+06,2.54156e+06
5.18718,1.99357e+06,2.54158e+06
5.22718,1.99358e+06,2.54161e+06
5.26815,1.9936e+06,2.54168e+06
5.30822,1.99361e+06,2.54169e+06
5.34818,1.99361e+06,2.54167e+06
5.38818,1.9936e+06,2.54166e+06
5.42917,1.99362e+06,2.54168e+06
5.46943,1.99362e+06,2.5417e+06
5.50915,1.99364e+06,2.54175e+06
5.54929,1.99364e+06,2.54179e+06
5.59059,1.99366e+06,2.54183e+06
5.63016,1.99367e+06,2.54186e+06
5.67013,1.99368e+06,2.54188e+06
5.71016,1.99368e+06,2.54191e+06
5.75115,1.99368e+06,2.54191e+06
5.79117,1.99369e+06,2.54194e+06
5.83114,1.9937e+06,2.54197e+06
5.87113,1.99371e+06,2.542e+06
5.91121,1.99371e+06,2.54199e+06
5.95215,1.99367e+06,2.54186e+06
5.99217,1.99358e+06,2.54159e+06
6.03215,1.99354e+06,2.54145e+06
6.07269,1.99354e+06,2.54148e+06
6.11313,1.99357e+06,2.54155e+06
6.15312,1.99358e+06,2.54161e+06
6.1935,1.99359e+06,2.54164e+06
6.23326,1.99359e+06,2.54167e+06
6.27415,1.9936e+06,2.54166e+06
6.3141,1.99359e+06,2.54167e+06
6.35448,1.9936e+06,2.54169e+06
6.39415,1.99361e+06,2.54174e+06
6.43424,1.99363e+06,2.54179e+06
6.47512,1.99365e+06,2.54184e+06
6.51512,1.99365e+06,2.54186e+06
6.55511,1.99366e+06,2.5419e+06
6.5952,1.99366e+06,2.54192e+06
6.63611,1.99367e+06,2.54195e+06
6.67611,1.99368e+06,2.54198e+06
6.71615,1.99369e+06,2.54201e+06
6.75608,1.99369e+06,2.54203e+06
6.79709,1.9937e+06,2.54206e+06
6.83706,1.99371e+06,2.5421e+06
6.87728,1.9937e+06,2.54208e+06
6.91716,1.99364e+06,2.54188e+06
6.95748,1.99356e+06,2.54166e+06
6.99813,1.99355e+06,2.54162e+06
7.03812,1.99356e+06,2.54168e+06
7.0783,1.99359e+06,2.54176e+06
7.1181,1.9936e+06,2.5418e+06
7.1591,1.99363e+06,2.54184e+06
7.1991,1.99362e+06,2.54183e+06
7.23915,1.99361e+06,2.54181e+06
7.27913,1.99361e+06,2.54183e+06
7.32018,1.99362e+06,2.54184e+06
7.36009,1.99363e+06,2.54189e+06
7.4001,1.99363e+06,2.54193e+06
7.44011,1.99365e+06,2.54198e+06
7.48007,1.99365e+06,2.54201e+06
7.52105,1.99366e+06,2.54204e+06
7.56107,1.99367e+06,2.54206e+06
7.6011,1.99368e+06,2.54209e+06
7.64111,1.99368e+06,2.54212e+06
7.68214,1.99369e+06,2.54214e+06
7.72206,1.99369e+06,2.54216e+06
7.76208,1.9937e+06,2.54218e+06
7.80206,1.9937e+06,2.5422e+06
7.8431,1.9937e+06,2.54219e+06
7.88308,1.99364e+06,2.542e+06
7.92304,1.99357e+06,2.54178e+06
7.96304,1.99355e+06,2.54174e+06
8.00305,1.99358e+06,2.54178e+06
8.04412,1.9936e+06,2.54186e+06
8.08402,1.99361e+06,2.54191e+06
8.12451,1.99362e+06,2.54195e+06
8.16518,1.99362e+06,2.54193e+06
8.2067,1.99361e+06,2.54191e+06
8.24505,1.99361e+06,2.54191e+06
8.28503,1.99362e+06,2.54193e+06
8.32533,1.99362e+06,2.54198e+06
8.36613,1.99364e+06,2.54202e+06
8.40632,1.99365e+06,2.54206e+06
8.44601,1.99365e+06,2.54208e+06
8.48601,1.99366e+06,2.54212e+06
8.52633,1.99366e+06,2.54213e+06
8.56709,1.99368e+06,2.54216e+06
8.60752,1.99367e+06,2.54217e+06
8.64704,1.99368e+06,2.5422e+06
8.68704,1.99368e+06,2.54222e+06
8.72812,1.99369e+06,2.54225e+06
8.76803,1.99369e+06,2.54226e+06
8.80801,1.99367e+06,2.54218e+06
8.84812,1.99359e+06,2.54197e+06
8.88897,1.99357e+06,2.54187e+06
8.92905,1.99358e+06,2.54191e+06
8.96902,1.9936e+06,2.54198e+06
9.00936,1.99362e+06,2.54205e+06
9.049,1.99363e+06,2.54208e+06
9.09013,1.99364e+06,2.54209e+06
9.13002,1.99363e+06,2.54207e+06
9.17079,1.99363e+06,2.54207e+06
9.21002,1.99363e+06,2.54208e+06
9.25103,1.99364e+06,2.54211e+06
9.29131,1.99364e+06,2.54215e+06
9.33101,1.99366e+06,2.54218e+06
9.37102,1.99365e+06,2.5422e+06
9.412,1.99367e+06,2.54223e+06
9.45205,1.99367e+06,2.54225e+06
9.49303,1.99368e+06,2.54226e+06
9.53201,1.99368e+06,2.54228e+06
9.57302,1.99368e+06,2.5423e+06
9.61308,1.99369e+06,2.54233e+06
9.653,1.99369e+06,2.54234e+06
9.69376,1.9937e+06,2.54233e+06
9.733,1.99363e+06,2.54214e+06
9.77497,1.99358e+06,2.54196e+06
9.81408,1.99356e+06,2.54192e+06
9.85399,1.99359e+06,2.54199e+06
9.89403,1.99359e+06,2.54204e+06
9.93498,1.99362e+06,2.5421e+06
9.97525,1.99362e+06,2.54213e+06
10.015,1.99362e+06,2.54211e+06
10.055,1.99361e+06,2.54209e+06
10.096,1.99361e+06,2.54208e+06
10.136,1.99362e+06,2.54211e+06
10.1761,1.99362e+06,2.54213e+06
10.216,1.99363e+06,2.54217e+06
10.256,1.99364e+06,2.54219e+06
10.297,1.99365e+06,2.54223e+06
10.337,1.99366e+06,2.54225e+06
10.3779,1.99366e+06,2.54228e+06
10.417,1.99366e+06,2.54229e+06
10.458,1.99367e+06,2.54231e+06
10.4981,1.99367e+06,2.54233e+06
10.5383,1.99367e+06,2.54234e+06
10.578,1.99368e+06,2.54236e+06
10.6189,1.99366e+06,2.54228e+06
10.6594,1.9936e+06,2.54209e+06
10.6989,1.99355e+06,2.54195e+06
10.739,1.99356e+06,2.54198e+06
10.779,1.99358e+06,2.54203e+06
10.82,1.9936e+06,2.5421e+06
10.86,1.9936e+06,2.54213e+06
10.8999,1.99361e+06,2.54214e+06
10.9399,1.9936e+06,2.54212e+06
10.9809,1.9936e+06,2.5421e+06
11.0209,1.9936e+06,2.5421e+06
11.0609,1.99361e+06,2.54213e+06
11.101,1.99362e+06,2.54218e+06
11.1412,1.99363e+06,2.5422e+06
11.1819,1.99363e+06,2.54224e+06
11.223,1.99363e+06,2.54225e+06
11.2619,1.99364e+06,2.54229e+06
11.3019,1.99364e+06,2.5423e+06
11.3429,1.99366e+06,2.54233e+06
11.383,1.99365e+06,2.54235e+06
11.4229,1.99366e+06,2.54237e+06
11.4629,1.99366e+06,2.54239e+06
11.5039,1.99366e+06,2.54238e+06
11.544,1.99361e+06,2.54224e+06
11.584,1.99356e+06,2.54205e+06
11.6239,1.99354e+06,2.54202e+06
11.6639,1.99356e+06,2.54206e+06
11.7049,1.99358e+06,2.54213e+06
11.7449,1.99359e+06,2.54218e+06
11.785,1.9936e+06,2.54221e+06
11.8249,1.9936e+06,2.5422e+06
11.866,1.99359e+06,2.54217e+06
11.9063,1.99359e+06,2.54215e+06
11.946,1.99359e+06,2.54216e+06
11.9859,1.9936e+06,2.54219e+06
12.0269,1.99361e+06,2.54221e+06
12.0669,1.99362e+06,2.54225e+06
12.1069,1.99363e+06,2.54227e+06
12.1469,1.99363e+06,2.5423e+06
12.1869,1.99363e+06,2.5423e+06
12.2279,1.99364e+06,2.54233e+06
12.2679,1.99363e+06,2.54233e+06
12.3079,1.99364e+06,2.54236e+06
12.348,1.99364e+06,2.54235e+06
12.3892,1.99361e+06,2.54226e+06
12.4289,1.99354e+06,2.54205e+06
12.4689,1.99352e+06,2.54198e+06
12.5089,1.99353e+06,2.54203e+06
12.55,1.99356e+06,2.54209e+06
12.59,1.99357e+06,2.54215e+06
12.6302,1.99358e+06,2.54217e+06
12.6699,1.99358e+06,2.54217e+06
12.7106,1.99357e+06,2.54214e+06
12.7509,1.99357e+06,2.54215e+06
12.7909,1.99357e+06,2.54215e+06
12.831,1.99358e+06,2.54219e+06
12.8711,1.99358e+06,2.54222e+06
12.9118,1.9936e+06,2.54226e+06
12.9519,1.9936e+06,2.54229e+06
12.9919,1.99361e+06,2.54232e+06
13.0319,1.99361e+06,2.54234e+06
13.0728,1.99362e+06,2.54237e+06
13.1129,1.99361e+06,2.5424e+06
13.1529,1.99362e+06,2.5424e+06
13.1929,1.99361e+06,2.54242e+06
13.233,1.99361e+06,2.54239e+06
13.2739,1.99356e+06,2.54222e+06
13.3138,1.9935e+06,2.54204e+06
13.3539,1.99349e+06,2.54203e+06
13.3939,1.99351e+06,2.54208e+06
13.435,1.99353e+06,2.54215e+06
13.4751,1.99353e+06,2.54217e+06
13.5151,1.99354e+06,2.54218e+06
13.5548,1.99354e+06,2.54218e+06
13.596,1.99354e+06,2.54215e+06
13.6358,1.99353e+06,2.54217e+06
13.6758,1.99354e+06,2.54217e+06
13.716,1.99355e+06,2.5422e+06
13.7558,1.99355e+06,2.54224e+06
13.7968,1.99356e+06,2.54227e+06
13.8371,1.99357e+06,2.5423e+06
13.8772,1.99358e+06,2.54234e+06
13.9168,1.99358e+06,2.54234e+06
13.9578,1.99359e+06,2.54236e+06
13.9979,1.99358e+06,2.54237e+06
14.0378,1.99359e+06,2.54239e+06
14.0779,1.99359e+06,2.5424e+06
14.1188,1.99358e+06,2.54234e+06
14.1591,1.99352e+06,2.54216e+06
14.1988,1.99347e+06,2.54201e+06
14.2388,1.99347e+06,2.54202e+06
14.2788,1.9935e+06,2.54208e+06
14.3205,1.99351e+06,2.54213e+06
14.3598,1.99352e+06,2.54217e+06
14.3999,1.99353e+06,2.54219e+06
14.4398,1.99352e+06,2.54218e+06
14.4808,1.99353e+06,2.54218e+06
14.5211,1.99352e+06,2.54218e+06
14.5608,1.99354e+06,2.54222e+06
14.6008,1.99355e+06,2.54225e+06
14.642,1.99356e+06,2.54229e+06
14.6818,1.99356e+06,2.54232e+06
14.7218,1.99357e+06,2.54234e+06
14.7619,1.99357e+06,2.54236e+06
14.8028,1.99357e+06,2.54237e+06
14.8428,1.99357e+06,2.54239e+06
14.8828,1.99358e+06,2.5424e+06
14.923,1.99359e+06,2.54242e+06
14.9628,1.99359e+06,2.54243e+06
15.004,1.99359e+06,2.5424e+06
15.0438,1.99352e+06,2.54222e+06
15.0839,1.99348e+06,2.54207e+06
15.1239,1.99347e+06,2.54206e+06
15.1648,1.9935e+06,2.54212e+06
15.2053,1.9935e+06,2.54216e+06
15.2448,1.99352e+06,2.54221e+06
15.2848,1.99352e+06,2.54223e+06
15.3258,1.99352e+06,2.54221e+06
15.3658,1.99352e+06,2.5422e+06
15.4058,1.99352e+06,2.54221e+06
15.4458,1.99352e+06,2.54224e+06
15.4859,1.99353e+06,2.54226e+06
15.5268,1.99354e+06,2.5423e+06
15.5668,1.99355e+06,2.54233e+06
15.6071,1.99356e+06,2.54236e+06
15.6468,1.99356e+06,2.54238e+06
15.6878,1.99357e+06,2.54239e+06
15.7278,1.99357e+06,2.54241e+06
15.7678,1.99357e+06,2.54242e+06
15.8078,1.99357e+06,2.54244e+06
15.8489,1.99358e+06,2.54244e+06
15.8888,1.99354e+06,2.54232e+06
15.9289,1.99348e+06,2.54215e+06
15.9692,1.99346e+06,2.54211e+06
16.0092,1.99348e+06,2.54215e+06
16.0499,1.9935e+06,2.54223e+06
16.0901,1.99351e+06,2.54226e+06
16.1297,1.99352e+06,2.5423e+06
16.1697,1.99352e+06,2.54227e+06
16.2108,1.99351e+06,2.54225e+06
16.2508,1.99351e+06,2.54226e+06
16.2907,1.99352e+06,2.54228e+06
16.3307,1.99352e+06,2.54231e+06
16.3718,1.99354e+06,2.54233e+06
16.4117,1.99354e+06,2.54236e+06
16.4517,1.99354e+06,2.54238e+06
16.4917,1.99355e+06,2.54241e+06
16.5329,1.99355e+06,2.54242e+06
16.5741,1.99355e+06,2.54244e+06
16.6127,1.99355e+06,2.54245e+06
16.6527,1.99356e+06,2.54247e+06
16.6928,1.99354e+06,2.54242e+06
16.7337,1.99349e+06,2.54225e+06
16.7737,1.99343e+06,2.5421e+06
16.8137,1.99343e+06,2.54209e+06
16.8544,1.99344e+06,2.54211e+06
16.8948,1.99347e+06,2.54217e+06
16.9347,1.99347e+06,2.54222e+06
16.9747,1.99348e+06,2.54223e+06
17.0148,1.99347e+06,2.54223e+06
17.0557,1.99347e+06,2.5422e+06
17.0957,1.99347e+06,2.54222e+06
17.1357,1.99347e+06,2.54224e+06
17.1757,1.99348e+06,2.54227e+06
17.2157,1.99349e+06,2.54229e+06
17.2568,1.9935e+06,2.54233e+06
17.2967,1.99349e+06,2.54234e+06
17.3367,1.99351e+06,2.54237e+06
17.3767,1.99351e+06,2.54237e+06
17.4178,1.99352e+06,2.54239e+06
17.4577,1.99351e+06,2.5424e+06
17.4977,1.99352e+06,2.54241e+06
17.5377,1.99352e+06,2.5424e+06
17.5797,1.99348e+06,2.54224e+06
17.6199,1.99341e+06,2.54208e+06
17.6587,1.99341e+06,2.54206e+06
17.6987,1.99343e+06,2.54212e+06
17.7389,1.99344e+06,2.54216e+06
17.7796,1.99346e+06,2.5422e+06
17.8197,1.99346e+06,2.54222e+06
17.8596,1.99345e+06,2.54221e+06
17.8996,1.99344e+06,2.54219e+06
17.9406,1.99345e+06,2.54219e+06
17.9808,1.99345e+06,2.54221e+06
18.0206,1.99347e+06,2.54224e+06
18.0611,1.99347e+06,2.54227e+06
18.1017,1.99348e+06,2.5423e+06
18.1416,1.99348e+06,2.54233e+06
18.1816,1.99348e+06,2.54234e+06
18.2216,1.99349e+06,2.54236e+06
18.2626,1.9935e+06,2.54237e+06
18.3026,1.9935e+06,2.54241e+06
18.3428,1.9935e+06,2.54242e+06
18.3826,1.99351e+06,2.54244e+06
18.4229,1.99349e+06,2.54236e+06
18.4636,1.99342e+06,2.54217e+06
18.5036,1.99338e+06,2.54207e+06
18.5436,1.99339e+06,2.5421e+06
18.5837,1.99341e+06,2.54215e+06
18.6246,1.99344e+06,2.54219e+06
18.6648,1.99343e+06,2.54223e+06
18.7046,1.99344e+06,2.54222e+06
18.7446,1.99343e+06,2.5422e+06
18.7866,1.99343e+06,2.54219e+06
18.8256,1.99344e+06,2.54221e+06
18.8656,1.99344e+06,2.54224e+06
18.9062,1.99345e+06,2.54228e+06
18.9456,1.99346e+06,2.5423e+06
18.9866,1.99347e+06,2.54234e+06
19.0268,1.99347e+06,2.54236e+06
19.0667,1.99348e+06,2.54238e+06
19.1066,1.99348e+06,2.54241e+06
19.1478,1.9935e+06,2.54243e+06
19.1876,1.9935e+06,2.54245e+06
19.2276,1.99351e+06,2.54247e+06
19.2676,1.9935e+06,2.54247e+06
19.3086,1.99348e+06,2.5424e+06
19.3486,1.99342e+06,2.54221e+06
19.3888,1.99338e+06,2.5421e+06
19.4287,1.9934e+06,2.54214e+06
19.4696,1.99341e+06,2.54218e+06
19.5096,1.99342e+06,2.54223e+06
19.5496,1.99344e+06,2.54226e+06
19.5896,1.99344e+06,2.54227e+06
19.6296,1.99343e+06,2.54225e+06
19.6706,1.99344e+06,2.54225e+06
19.7106,1.99344e+06,2.54227e+06
19.7506,1.99345e+06,2.5423e+06
19.7916,1.99346e+06,2.54234e+06
19.8316,1.99348e+06,2.54237e+06
19.8722,1.99347e+06,2.54239e+06
19.9116,1.99348e+06,2.5424e+06
19.9516,1.99348e+06,2.54242e+06
19.9916,1.99349e+06,2.54243e+06
20.0326,1.99349e+06,2.54245e+06
20.0728,1.9935e+06,2.54246e+06
20.1126,1.9935e+06,2.54248e+06
20.1526,1.99349e+06,2.54245e+06
20.1936,1.99344e+06,2.54229e+06
20.2338,1.99337e+06,2.54214e+06
20.2735,1.99338e+06,2.54212e+06
20.3136,1.9934e+06,2.54219e+06
20.3546,1.99342e+06,2.54225e+06
20.3947,1.99343e+06,2.5423e+06
20.4345,1.99344e+06,2.54231e+06
20.4746,1.99343e+06,2.54229e+06
20.5156,1.99343e+06,2.54227e+06
20.5555,1.99343e+06,2.54229e+06
20.5955,1.99344e+06,2.5423e+06
20.6355,1.99344e+06,2.54234e+06
20.6755,1.99344e+06,2.54235e+06
20.7165,1.99347e+06,2.5424e+06
20.757,1.99347e+06,2.54242e+06
20.7966,1.99347e+06,2.54244e+06
20.8365,1.99347e+06,2.54245e+06
20.8776,1.99349e+06,2.54247e+06
20.9175,1.99348e+06,2.54249e+06
20.9575,1.99348e+06,2.54247e+06
20.9976,1.99343e+06,2.54233e+06
21.0388,1.99338e+06,2.54217e+06
21.0786,1.99337e+06,2.54216e+06
21.1185,1.99339e+06,2.5422e+06
21.1586,1.99341e+06,2.54225e+06
21.1985,1.99341e+06,2.54228e+06
21.2395,1.99343e+06,2.54232e+06
21.2805,1.99342e+06,2.5423e+06
21.3195,1.99342e+06,2.54229e+06
21.3595,1.99342e+06,2.54229e+06
21.4005,1.99343e+06,2.54232e+06
21.4405,1.99343e+06,2.54235e+06
21.4805,1.99345e+06,2.54238e+06
21.5205,1.99345e+06,2.54241e+06
21.5615,1.99346e+06,2.54243e+06
21.6015,1.99346e+06,2.54246e+06
21.6415,1.99346e+06,2.54247e+06
21.6816,1.99347e+06,2.54249e+06
21.7218,1.99347e+06,2.54249e+06
21.7625,1.99348e+06,2.54251e+06
21.8025,1.99346e+06,2.54246e+06
21.8425,1.99341e+06,2.54229e+06
21.8836,1.99335e+06,2.54212e+06
21.9235,1.99334e+06,2.54211e+06
21.9634,1.99336e+06,2.54217e+06
22.0035,1.99338e+06,2.54221e+06
22.0435,1.99338e+06,2.54224e+06
22.0845,1.99339e+06,2.54226e+06
22.1245,1.99339e+06,2.54226e+06
22.1645,1.99337e+06,2.54223e+06
22.2047,1.99338e+06,2.54224e+06
22.2446,1.99339e+06,2.54227e+06
22.2855,1.9934e+06,2.54231e+06
22.3255,1.9934e+06,2.54235e+06
22.3655,1.99342e+06,2.54238e+06
22.4055,1.99342e+06,2.54241e+06
22.4466,1.99344e+06,2.54243e+06
22.4871,1.99343e+06,2.54244e+06
22.5265,1.99344e+06,2.54246e+06
22.5665,1.99345e+06,2.54248e+06
22.6075,1.99345e+06,2.54248e+06
22.6485,1.99345e+06,2.5425e+06
22.6875,1.99342e+06,2.54239e+06
22.7275,1.99334e+06,2.54219e+06
22.7674,1.9933e+06,2.54209e+06
22.8088,1.99331e+06,2.5421e+06
22.8485,1.99332e+06,2.54214e+06
22.8884,1.99335e+06,2.54222e+06
22.9286,1.99336e+06,2.54225e+06
22.9704,1.99337e+06,2.54228e+06
23.0095,1.99336e+06,2.54227e+06
23.0495,1.99336e+06,2.54228e+06
23.0895,1.99336e+06,2.5423e+06
23.1304,1.99338e+06,2.54233e+06
23.1707,1.99338e+06,2.54236e+06
23.211,1.99339e+06,2.54237e+06
23.2504,1.99339e+06,2.54238e+06
23.2908,1.9934e+06,2.5424e+06
23.3314,1.9934e+06,2.54243e+06
23.3717,1.9934e+06,2.54242e+06
23.4124,1.9934e+06,2.54245e+06
23.4514,1.99341e+06,2.54247e+06
23.4924,1.99342e+06,2.5425e+06
23.5325,1.99341e+06,2.54248e+06
23.5725,1.99337e+06,2.54234e+06
23.6124,1.9933e+06,2.54217e+06
23.6535,1.99331e+06,2.54215e+06
23.6934,1.99332e+06,2.54222e+06
23.7338,1.99334e+06,2.54228e+06
23.7734,1.99335e+06,2.54232e+06
23.8144,1.99335e+06,2.54234e+06
23.8554,1.99335e+06,2.54233e+06
23.8944,1.99334e+06,2.54231e+06
23.9344,1.99335e+06,2.54235e+06
23.9744,1.99335e+06,2.54236e+06
24.0154,1.99337e+06,2.5424e+06
24.0554,1.99336e+06,2.54242e+06
24.0954,1.99337e+06,2.54245e+06
24.1354,1.99337e+06,2.54247e+06
24.1768,1.99339e+06,2.54249e+06
24.2167,1.99339e+06,2.5425e+06
24.2566,1.99339e+06,2.5425e+06
24.2964,1.99339e+06,2.54252e+06
24.3374,1.9934e+06,2.54254e+06
24.3778,1.99341e+06,2.54256e+06
24.4174,1.99339e+06,2.54252e+06
24.4575,1.99334e+06,2.54237e+06
24.4974,1.99329e+06,2.54221e+06
24.5384,1.99329e+06,2.54222e+06
24.5785,1.99331e+06,2.54227e+06
24.6185,1.99332e+06,2.54232e+06
24.6584,1.99333e+06,2.54235e+06
24.6994,1.99334e+06,2.54237e+06
24.7404,1.99333e+06,2.54236e+06
24.7794,1.99333e+06,2.54237e+06
24.8194,1.99333e+06,2.54239e+06
24.8604,1.99334e+06,2.54241e+06
24.9004,1.99335e+06,2.54245e+06
24.9404,1.99336e+06,2.54246e+06
24.9804,1.99337e+06,2.54249e+06
25.021,1.99336e+06,2.54249e+06
25.0615,1.99338e+06,2.54251e+06
25.1017,1.99337e+06,2.5425e+06
25.1417,1.99338e+06,2.54252e+06
25.1814,1.99338e+06,2.54254e+06
25.2224,1.99339e+06,2.54256e+06
25.2624,1.99338e+06,2.54257e+06
25.3023,1.99337e+06,2.54251e+06
25.3424,1.9933e+06,2.54233e+06
25.3834,1.99329e+06,2.54224e+06
25.4234,1.99329e+06,2.5423e+06
25.4634,1.99332e+06,2.54236e+06
25.5034,1.99333e+06,2.54242e+06
25.5434,1.99335e+06,2.54245e+06
25.5848,1.99335e+06,2.54246e+06
25.6246,1.99335e+06,2.54244e+06
25.6643,1.99334e+06,2.54245e+06
25.7044,1.99335e+06,2.54245e+06
25.7454,1.99336e+06,2.54249e+06
25.7854,1.99337e+06,2.54251e+06
25.8253,1.99338e+06,2.54254e+06
25.8654,1.99338e+06,2.54257e+06
25.9064,1.99339e+06,2.54259e+06
25.9464,1.99339e+06,2.5426e+06
25.9864,1.9934e+06,2.54262e+06
26.0263,1.9934e+06,2.54263e+06
26.0673,1.99341e+06,2.54264e+06
26.1073,1.99341e+06,2.54266e+06
26.1474,1.99341e+06,2.54264e+06
26.1873,1.99338e+06,2.54254e+06
26.2273,1.99332e+06,2.54237e+06
26.2696,1.9933e+06,2.54232e+06
26.3083,1.99331e+06,2.54235e+06
26.3483,1.99334e+06,2.54242e+06
26.3886,1.99334e+06,2.54245e+06
26.4293,1.99336e+06,2.54248e+06
26.4693,1.99334e+06,2.54246e+06
26.5094,1.99335e+06,2.54244e+06
26.5496,1.99333e+06,2.54244e+06
26.5903,1.99335e+06,2.54246e+06
26.6303,1.99336e+06,2.5425e+06
26.6703,1.99337e+06,2.54251e+06
26.7106,1.99338e+06,2.54256e+06
26.7503,1.99338e+06,2.54257e+06
26.7913,1.99339e+06,2.5426e+06
26.8313,1.99339e+06,2.5426e+06
26.8713,1.99339e+06,2.54263e+06
26.9113,1.99339e+06,2.54263e+06
26.9523,1.9934e+06,2.54262e+06
26.9923,1.99334e+06,2.54248e+06
27.0323,1.9933e+06,2.54234e+06
27.0723,1.99329e+06,2.54232e+06
27.1135,1.99331e+06,2.54237e+06
27.1533,1.99332e+06,2.54242e+06
27.1934,1.99334e+06,2.54247e+06
27.2333,1.99334e+06,2.5425e+06
27.2743,1.99334e+06,2.54249e+06
27.3143,1.99334e+06,2.54249e+06
27.3546,1.99333e+06,2.5425e+06
27.395,1.99334e+06,2.54253e+06
27.4343,1.99334e+06,2.54254e+06
27.4753,1.99336e+06,2.54258e+06
27.5153,1.99336e+06,2.5426e+06
27.5553,1.99338e+06,2.54263e+06
27.5953,1.99337e+06,2.54264e+06
27.6362,1.99338e+06,2.54266e+06
27.6762,1.99338e+06,2.54267e+06
27.7163,1.99339e+06,2.54268e+06
27.7562,1.99336e+06,2.5426e+06
27.7973,1.99329e+06,2.5424e+06
27.8372,1.99326e+06,2.5423e+06
27.8776,1.99326e+06,2.54232e+06
27.9173,1.99329e+06,2.54237e+06
27.9573,1.9933e+06,2.5424e+06
27.9982,1.99331e+06,2.54245e+06
28.0383,1.9933e+06,2.54244e+06
28.0782,1.9933e+06,2.54242e+06
28.1182,1.99329e+06,2.5424e+06
28.1592,1.9933e+06,2.54242e+06
28.1996,1.9933e+06,2.54244e+06
28.2392,1.99332e+06,2.54247e+06
28.2794,1.99332e+06,2.54249e+06
28.3206,1.99333e+06,2.5425e+06
28.3605,1.99333e+06,2.54252e+06
28.4002,1.99333e+06,2.54252e+06
28.4402,1.99334e+06,2.54255e+06
28.4803,1.99334e+06,2.54256e+06
28.5222,1.99334e+06,2.54257e+06
28.5612,1.99331e+06,2.54247e+06
28.6012,1.99324e+06,2.5423e+06
28.6413,1.99321e+06,2.54221e+06
28.6822,1.99323e+06,2.54227e+06
28.7222,1.99324e+06,2.54231e+06
28.7622,1.99326e+06,2.54235e+06
28.8022,1.99327e+06,2.54236e+06
28.8432,1.99327e+06,2.54236e+06
28.8832,1.99325e+06,2.54234e+06
28.9235,1.99326e+06,2.54234e+06
28.9633,1.99326e+06,2.54237e+06
29.0042,1.99328e+06,2.54239e+06
29.0446,1.99329e+06,2.54242e+06
29.0842,1.99329e+06,2.54243e+06
29.125,1.9933e+06,2.54246e+06
29.1645,1.9933e+06,2.54249e+06
29.2052,1.99331e+06,2.54252e+06
29.2452,1.99331e+06,2.54254e+06
29.2852,1.99332e+06,2.54257e+06
29.3253,1.99332e+06,2.54258e+06
29.3661,1.99332e+06,2.54258e+06
29.4062,1.99327e+06,2.54244e+06
29.4462,1.99321e+06,2.54225e+06
29.4862,1.99319e+06,2.5422e+06
29.5272,1.99322e+06,2.54224e+06
29.5672,1.99323e+06,2.54229e+06
29.6079,1.99324e+06,2.54231e+06
29.6473,1.99325e+06,2.54233e+06
29.6883,1.99324e+06,2.5423e+06
29.7282,1.99324e+06,2.5423e+06
29.7681,1.99324e+06,2.5423e+06
29.8082,1.99324e+06,2.54234e+06
29.8483,1.99326e+06,2.54236e+06
29.8892,1.99327e+06,2.54241e+06
29.9292,1.99327e+06,2.54243e+06
29.9692,1.99328e+06,2.54247e+06
30.0092,1.99328e+06,2.54248e+06
30.0502,1.99329e+06,2.5425e+06
30.0902,1.99329e+06,2.54252e+06
30.1302,1.99329e+06,2.54252e+06
30.1702,1.99329e+06,2.54253e+06
30.2112,1.9933e+06,2.54253e+06
30.2512,1.99327e+06,2.54243e+06
30.2911,1.9932e+06,2.54222e+06
30.3311,1.99318e+06,2.54216e+06
30.3712,1.99319e+06,2.54221e+06
30.4122,1.99322e+06,2.54227e+06
30.4525,1.99323e+06,2.5423e+06
30.4932,1.99324e+06,2.54235e+06
30.5321,1.99323e+06,2.54232e+06
30.5735,1.99323e+06,2.5423e+06
30.6131,1.99322e+06,2.54231e+06
30.6531,1.99324e+06,2.54233e+06
30.6935,1.99324e+06,2.54236e+06
